i,ii,iii,avr,avl,avf,v1,v2,v3,v4,v5,v6
-0.09188144612214212,0.06972514488326442,0.1616285146342776,0.011295312322987366,-0.12686248265925967,0.11558006642661886,-0.15726555863984554,-0.23572194188605386,-0.20028645282455923,-0.03357672928385556,0.07087199606557876,0.07707839761455978
-0.088737027120949,0.05755465047144882,0.1462689673906137,0.015950523276033825,-0.11759182272594222,0.1016551741834367,-0.1468468795812163,-0.2294483235950114,-0.20030688918818865,-0.03421482201013405,0.07427796358061019,0.08945993830534299
-0.08758030269370054,0.06327205789389384,0.15081001033342814,0.012386091043456565,-0.11909376173519104,0.10670017749882024,-0.1530608379329168,-0.23177327220466995,-0.2001572047206746,-0.033730371557565926,0.07298107996309967,0.08617831931655477
-0.0853084973307479,0.0638610796380094,0.14911144901803075,0.010924929493027294,-0.11703938685565644,0.10612551350750989,-0.15191645657170272,-0.23103651602088174,-0.2007716404115375,-0.03418172477429289,0.07400098264903465,0.08878685179784127
-0.08275652696383767,0.06929643425091839,0.152000106331856,0.006842041973418146,-0.11717307100112706,0.11036930490137124,-0.15313711167428987,-0.2303786810602865,-0.20029397239672186,-0.03383979246753273,0.07490792978482472,0.08837991308595633
-0.07961227478890438,0.07248084011088322,0.1520513266971012,0.0036380833588320533,-0.11565625948319898,0.11211113539259872,-0.15076747408515417,-0.2287477615419793,-0.20050555114693328,-0.034222088021471184,0.07687436180138561,0.09074770613635719
-0.07686535841196099,0.07750085307630389,0.15434619394350957,-0.0003123309995904189,-0.11547936130050765,0.1159216996972895,-0.1498984575295363,-0.2267434377794365,-0.19958520916547745,-0.034019479068716385,0.07816867328982753,0.09081596810126075
-0.07559147701156642,0.07799080987561126,0.15357484804272536,-0.0011936900632979095,-0.11454204448073194,0.11586869040544201,-0.1477596340288841,-0.22504429322656583,-0.19890947126472033,-0.034557473237136704,0.07824909766543367,0.09120013545264505
-0.07586209587826974,0.07760813529547544,0.1534734520966069,-0.0008681555718770218,-0.11471060229084894,0.11566111554121743,-0.14739495737086655,-0.22319608644473332,-0.1969811940091512,-0.03467984510807416,0.07650664684328397,0.08886224716878927
-0.0772324913803408,0.07366724425629081,0.150912511590932,0.0018431038234457675,-0.11424110975373243,0.11241125897333475,-0.14592369493935498,-0.22162408634060127,-0.19524823973013208,-0.0354554345180781,0.07383745392294871,0.08666535227068545
-0.07902191778314008,0.07001423180337646,0.1490593455386949,0.004603739377586393,-0.1143082249514319,0.10963405060672061,-0.14544264041572202,-0.21954365513540822,-0.1925704258567331,-0.035862229870233873,0.07026073751613303,0.0828263158991618
-0.0795792581986827,0.06647851881586515,0.14608536081980283,0.006692521409367328,-0.11312210099193704,0.1063326848033897,-0.14385806363399067,-0.21789537197354125,-0.19075502389776838,-0.03689418393795365,0.06714997271045756,0.08053126589362207
-0.07894448202246901,0.06521222483177802,0.14418868170210156,0.007003815422323306,-0.11178983040185111,0.10469746236235734,-0.14282195296226471,-0.21554249394918212,-0.18843842926207094,-0.03757025954967549,0.06423299100694237,0.07786609311512294
-0.07750890920459473,0.0633040163533183,0.14083970557383516,0.007242752432274923,-0.10926824200491773,0.10198217871891103,-0.14117389479380613,-0.21353663324855404,-0.18663622764060864,-0.038780235069681326,0.06131129751461029,0.07611876600773007
-0.07571269172749043,0.061937402240931215,0.13768684490161856,0.00700124366162313,-0.1066502137787426,0.09964935795137066,-0.14033137844470062,-0.21050723955137016,-0.18388112571570714,-0.0395220612517144,0.05816553597898386,0.07329071848634564
-0.07453006090866157,0.057741703411807614,0.13236533392530064,0.008514229557836386,-0.10337750589840947,0.09488530672698817,-0.13945049075758842,-0.20727204617647763,-0.18084804105925142,-0.04046243130667457,0.054753186829481396,0.06986812060199035
-0.07388343393771304,0.05230936151016178,0.12638550735439907,0.010905106990031936,-0.10014652042786583,0.08924275968407891,-0.13950430628418958,-0.20245996652185136,-0.1762492699262982,-0.04072781988943257,0.05087093196980941,0.06453936275805303
-0.07308638244200687,0.04483290548054016,0.11824033324899832,0.014264047716842698,-0.09583340866679774,0.08154908369247396,-0.13937436569853096,-0.19714220253061937,-0.17115398229624434,-0.041039630963627984,0.04687783743226671,0.05898609736160182
-0.07184387057499571,0.03708453650393561,0.10936513742470903,0.017511998648392486,-0.09093935766657235,0.07336441799224455,-0.13969413419568572,-0.18986782507868122,-0.16444387148191805,-0.04074005590147514,0.0424712788765435,0.05237458962996132
-0.069399676677838,0.02864564789907284,0.09850226367508552,0.02049983516279608,-0.08434497111636192,0.06374807387833877,-0.13934108676544651,-0.18164592056769824,-0.15726829378645482,-0.040830608931077435,0.03750171693865076,0.046589120803959445
-0.06567958791359453,0.020743229176892815,0.08681050051460565,0.02254425036770184,-0.07658525276575137,0.05390266462846219,-0.13891694642442776,-0.17111532439895186,-0.14839723532787863,-0.04046321824727469,0.03186444298973387,0.04057251882054684
-0.06096487895383344,0.0117086247435735,0.07292519366797154,0.02466581417734836,-0.06718034110862747,0.04233706622199966,-0.13791571041743902,-0.1594764851817448,-0.13861773410192788,-0.04024945808045809,0.02562209484532482,0.034953961615428505
-0.05514103155117408,0.002230003251055875,0.057462258123625966,0.02644083439665514,-0.056400633817771564,0.029751050022686854,-0.13663898853443568,-0.1452903350737442,-0.12636917653997876,-0.038957909910599234,0.018777315170540633,0.02863037761282019
-0.04810275986849647,-0.009677541207872764,0.038413218502458574,0.028864715574742256,-0.04327321451730103,0.014236212402470043,-0.13421383537018214,-0.12955064711145434,-0.11169244732459414,-0.03636848233154047,0.01159771349359268,0.022088410936251277
-0.03995852718776897,-0.02284687443520624,0.01705818266229908,0.03137644818675817,-0.028488262402494604,-0.0029818385670538875,-0.1311967522710229,-0.1111574775533329,-0.09374757088274074,-0.031898944681514364,0.004051384835902165,0.014447356372072432
-0.030638004380586913,-0.037746608598696,-0.007170435876770015,0.03419475966782522,-0.011693673029875796,-0.02246177438646496,-0.12713369464356647,-0.09152576571961424,-0.07385352838653651,-0.026466358084723487,-0.003758301290028173,0.006840993770821319
-0.02053445312944451,-0.05274129500046436,-0.032259837374607435,0.036673894043065786,0.005899107366767396,-0.042406876644304085,-0.12304848113567077,-0.06998284449912195,-0.051722383780916724,-0.020171649385691815,-0.012019763086516462,-0.00167932284881659
-0.010252531290845385,-0.06752990333886111,-0.057355352389209815,0.03900206532142417,0.02354267950663217,-0.0623145087015553,-0.11963573065879497,-0.0486628362076419,-0.02942934839571284,-0.01504839081106308,-0.020994314843080935,-0.010534060024760004
0.00010587629702187087,-0.0810152327575193,-0.08125189829460727,0.040643596471918425,0.04059927738184786,-0.08102864412973775,-0.11717836143616805,-0.026536154740965212,-0.006357101292265925,-0.01047254601751788,-0.030521220531116486,-0.020303627674459614
0.010616095927142313,-0.09408882458862095,-0.1048916120756421,0.04203872674743796,0.05755961878000446,-0.09943786175822121,-0.1150051866535745,-0.004749054718726544,0.016838603472399308,-0.006611074331352772,-0.040371918962883245,-0.030197801967914533
0.02121486608784424,-0.10631923949631354,-0.12775596106158002,0.04293151932497829,0.07419029203436384,-0.11704081817439992,-0.11287468804651501,0.017767269645433795,0.04055962229809608,-0.0023797919070617773,-0.04980133341915,-0.040362042090124665
0.03207971915387965,-0.11946087664633757,-0.15173320077016925,0.044070702341141084,0.09160555504260096,-0.13560986996650384,-0.10934013777037294,0.0399168785304035,0.06364995304968474,0.0028008538200272578,-0.05752430940308849,-0.04922737537976941
0.04309291303242084,-0.1323890800586975,-0.17558379435799368,0.044929643607380144,0.10912654061017975,-0.15396137036372384,-0.10464233718287755,0.06274555990651655,0.08677868078462743,0.00944683143202988,-0.06356542583736169,-0.057367948839619966
0.053925648283025755,-0.14537655523197196,-0.19927924016190282,0.045854891965353674,0.12654546779512357,-0.17224769100581502,-0.0989938411158993,0.08467114139372925,0.10877040409802043,0.016404548674271956,-0.06823091590988656,-0.06435917989978106
0.06479224850580341,-0.15601093818068026,-0.2206432765833156,0.04555749888507865,0.14284012455495773,-0.18818746350970297,-0.09267907239100275,0.10703805487801883,0.13081147387729036,0.02402644484857804,-0.0721743660856938,-0.07086746832342834
0.07611272850433373,-0.1621192935443296,-0.23797082615806656,0.042871740723310334,0.1572629589716807,-0.1998810181878059,-0.08586817303423455,0.12901858945357547,0.15297028961246692,0.031207947539285737,-0.07679193562278988,-0.07671145535777102
0.08759422751311953,-0.16330310947186513,-0.2505749524015666,0.03771603457064055,0.16932809010206973,-0.2067844225199988,-0.07882455324247167,0.1515085415528743,0.17573967373931387,0.03836491697420958,-0.08203387617899147,-0.0824380481600609
0.09900410106345645,-0.16109467369395625,-0.25973728806800533,0.03096848842839113,0.17959153189181623,-0.2102873623218393,-0.07109223578689623,0.1730458467196203,0.19786594393969384,0.04523990794868433,-0.08724062713885455,-0.08708816325767327
0.1093953384094018,-0.1573335153398031,-0.26636352046594025,0.02396113967673194,0.1880452232387486,-0.21176185318176644,-0.06324115139705602,0.19414254370423614,0.21942502546560239,0.052028932360726914,-0.0922941345100898,-0.09170542223246428
0.1172196677130215,-0.15731864747928426,-0.2742168054523959,0.020064249724453347,0.19582802116186948,-0.21573760042977302,-0.0557032547713575,0.21258849662378768,0.23843101674757042,0.057821539129794736,-0.09670281319463363,-0.09653252013220731
0.12242085232577415,-0.1603457501509612,-0.28252873193347844,0.0189290465387909,0.2025370174525412,-0.22147045240799576,-0.04858984752342928,0.22933559125982186,0.25540141354531976,0.06312680133201129,-0.10025974099945253,-0.10182030958938654
0.12540478214345813,-0.16549937731860745,-0.2907970474899652,0.019957474914114468,0.20809457092501885,-0.2282594616948527,-0.041802167055784274,0.24336083182697135,0.2697982145677236,0.06736867950947856,-0.10325304193082833,-0.10692481712633044
0.12664420975509016,-0.17035023479536954,-0.29701485997739985,0.021691330381556646,0.21176431989010436,-0.23386261950258816,-0.034920512738124215,0.25575558716448304,0.2822471057618683,0.07139565350609695,-0.10488367766991279,-0.1109463048531219
0.1273670544269262,-0.171306724039433,-0.2987369687201953,0.02179538732689706,0.21296871006999085,-0.23522918078827407,-0.02679167216568767,0.26566431676800084,0.2922303263584624,0.07543741958108849,-0.10399830330213694,-0.11099569607393556
0.12761534408474728,-0.16786195050894556,-0.2955014870332316,0.01996867509546684,0.21149908758505093,-0.2318738965833749,-0.01763844456410036,0.2741328253779999,0.30036063966728443,0.07990572064467061,-0.1006823134303158,-0.10769233734020288
0.1268976320644994,-0.16231472595206548,-0.2891319429595452,0.01760525612391592,0.20801771303887115,-0.22586842190070952,-0.007734623792444245,0.27975411558414365,0.30564542566980946,0.0840664140485767,-0.09521561288643766,-0.1013651541455346
0.1254037530875478,-0.1549403804091053,-0.2801503075029087,0.014712666511452874,0.20285364905084333,-0.21762380398350803,0.0021280391660010384,0.28372351905294796,0.3087041866594213,0.08808137323945256,-0.08835615883508623,-0.09377363140008506
0.1231672535362848,-0.14845462572288473,-0.27142185296215104,0.012632986803421257,0.19739044619043844,-0.20996583051641948,0.010628118762208972,0.2850508631496902,0.30871702420966296,0.09081095866258847,-0.08168649035181726,-0.0872141878362687
0.12018874986114303,-0.142467827821184,-0.26254972211226646,0.01114358480561319,0.19143686685760802,-0.202502289747331,0.017715751939236104,0.2848515656374777,0.30646823714051036,0.09269056570867713,-0.07534458290674384,-0.08223583842192486
0.11684958848477668,-0.136337945510399,-0.25323812968253284,0.009773371673428243,0.1850504631669602,-0.19475574006327467,0.023869295329826613,0.282151444731174,0.3014785075402728,0.09348916234227969,-0.06904033999633924,-0.07758376980940078
0.11261383943917089,-0.1295580468264367,-0.2423785762158994,0.008507776380510677,0.1774353456875595,-0.18592404925727266,0.029621246726575734,0.2779813165455176,0.29481493968880984,0.09376100260665586,-0.06276911311746702,-0.07335807129721815
0.10655456730801958,-0.12211327737387628,-0.2288992611746456,0.00782664838706731,0.16764019988642814,-0.17546991496383077,0.0362865177555917,0.27106268342782647,0.28637092656077245,0.09336480771272651,-0.05615135082897555,-0.06799365953543314
0.09890277251031498,-0.11362994706572398,-0.21266397137520895,0.007404369014676869,0.1557149282901853,-0.16313521807746106,0.04374611708221497,0.26267115901567195,0.277012851480561,0.09275355211389781,-0.049305124171031216,-0.06195220682137855
0.0900050587207254,-0.10525347554581577,-0.1952127470593197,0.007656834367665179,0.14257658127316644,-0.15026670760171834,0.05143960286070304,0.2520381931358691,0.2661785744990938,0.09136305370550621,-0.04267698186927146,-0.055639168918642117
0.08083586584825529,-0.09669801073119327,-0.17730709641529493,0.00794773616401455,0.12908549297591054,-0.13709204421829815,0.05882992019573304,0.24051171135152857,0.25449727774525027,0.08948931342862508,-0.036512079203531306,-0.04957902642912854
0.07320994704732667,-0.08861791440302152,-0.16156549359778433,0.007752173541495736,0.11742544617304537,-0.1252334352551542,0.06483670235660502,0.2274336010521297,0.24099623651245802,0.08639742489742604,-0.03128512344388536,-0.04382591420846872
0.06714135679041287,-0.08075951492185701,-0.14774040034487862,0.0069067978645282095,0.10748189314312394,-0.11443541577863926,0.06940075844064321,0.2141511029517312,0.22663458791269145,0.08263789336604642,-0.026929617017315055,-0.038755243178519735
0.06212011055535139,-0.07351614719679687,-0.13565907154475954,0.005883809154680713,0.09892555639426462,-0.10481380966750838,0.0729338095487117,0.1996912149934225,0.21116419675410508,0.07798881450445587,-0.023284847775805775,-0.03373660070044412
0.05762638910179947,-0.06656723085722038,-0.12440692936163741,0.004717930789053522,0.09104308362616824,-0.09573459088113769,0.07566829368425822,0.18569634600927978,0.19587649814528005,0.07337182236296484,-0.01976660469636576,-0.028816035486073154
0.0523669559618853,-0.060400318644234986,-0.11302743864658421,0.004250880772721727,0.08271274769673058,-0.08694651464240821,0.07821723418306942,0.1718333947624597,0.18107845052277766,0.06918530527583854,-0.01542210504356081,-0.023121665194164257
0.046332875197145545,-0.0547024007812653,-0.10120082077381887,0.004313347615188999,0.07377482688180136,-0.07813488564431595,0.08056855843958438,0.15928754183662988,0.1676058534721489,0.06588894038513832,-0.010260261996717774,-0.01706180692152459
0.04019429787308323,-0.04993708116464714,-0.0901223197534476,0.0048445282957532455,0.06515363444717982,-0.07013268353183374,0.0824051046711407,0.14711178195554067,0.15470037591580676,0.06288084100621676,-0.00467051243634769,-0.010585975929286028
0.033843951229165004,-0.04593260059849349,-0.07956500041842904,0.005850899890672963,0.05668658235182178,-0.06276906628085899,0.08347200711120553,0.1358818019205086,0.1428332500965998,0.0602446776667775,0.0009518135191882626,-0.004520329070581791
0.02741783452446376,-0.04336401870613375,-0.07045936406012508,0.00774348442068258,0.048905795226891785,-0.056902181400449704,0.08318410242523482,0.12349345050386772,0.13071705027639946,0.056786305973423934,0.005632499892286656,0.0005339419002974978
0.02102117725197699,-0.041792068080157584,-0.06247278190673472,0.01021962944907676,0.041702045722595615,-0.052142234924958356,0.08166308654796016,0.1112113522089925,0.11914293616712011,0.05298413360272323,0.009354164841532212,0.00423947086047452
0.014381566436041245,-0.041417464228806745,-0.05548667266612434,0.013505117593372109,0.034878078764691345,-0.04851634607308735,0.07920881995812752,0.09846164618344222,0.10783188084824834,0.04881433171266589,0.012477585451226143,0.007196741168575386
0.008179130486318935,-0.04155951319351403,-0.04946952099386167,0.01681945042896586,0.028769738421030373,-0.04564190267272763,0.0763371639478988,0.08702860494450312,0.09771973137027296,0.04487468261848126,0.014900725998657709,0.009333514403477591
0.0035534659351570933,-0.04199577555497171,-0.04526479321056134,0.01935327997803681,0.024378636416646237,-0.04377675142300852,0.07387714498835155,0.0772616518364284,0.0886660013070259,0.04121448188449773,0.01658711697213412,0.011539901464813276
0.00036760618818005924,-0.04226466880445493,-0.04227797622693605,0.02093084875377331,0.02133921325413459,-0.04239136945729548,0.0719304146709467,0.07023236878224477,0.08136821159852148,0.03831751345747408,0.017669328819599817,0.01356646768914098
-0.0016461463035421238,-0.042810096292883175,-0.040723199811797624,0.021986846863149705,0.01961619430583024,-0.041837154629177836,0.0702254642441903,0.06436256304848045,0.07489186391283542,0.03555280374526168,0.017992494830703004,0.015486268551389905
-0.003290726575919189,-0.04310288673773262,-0.03930936847675624,0.0227182496837241,0.018151663945419675,-0.04121156098646249,0.06859004402785182,0.06041834184145996,0.06984248931099281,0.03353240225789511,0.018116847598113616,0.017011119270603507
-0.006160568202456792,-0.043357914434688276,-0.03673890244318614,0.024222030171460296,0.015471981233917959,-0.040001525826409916,0.06638943518860549,0.056559500698223374,0.06531256188383565,0.032077919836180906,0.018877704511203925,0.01827955437851123
-0.010244258518254288,-0.043217850099777466,-0.03265793673145293,0.02628620806376371,0.011406559377613349,-0.03785169357477163,0.06371942824965655,0.05370622666573995,0.061902652414997636,0.031542351807969805,0.020305459031203534,0.019090010021317216
-0.014903655234458173,-0.042828918694333654,-0.027813567528331216,0.028621577274166258,0.006653005038547417,-0.03519702311365579,0.06084055980163434,0.05108731498961747,0.05897132692410325,0.03151189384587756,0.022181144881448924,0.019890871665356264
-0.019980014284067094,-0.042256753745418804,-0.022376092102543908,0.031097040836455214,0.0013765805581083897,-0.032154068365365295,0.05794950847930425,0.04947696400435959,0.05705894743435394,0.032080422628251726,0.024262473258436945,0.02068196430588406
-0.024802206655751845,-0.042513266952563314,-0.017925589231992386,0.033768049222730884,-0.00329574396636743,-0.030014865415225665,0.05532160960633653,0.04756794682822672,0.055289225145348266,0.0322657072951558,0.025794227140151612,0.02214361919685999
-0.02921385546385452,-0.04314825876883973,-0.014166496679874567,0.036306025364130315,-0.0074286056737719874,-0.02840718956571707,0.05303384358823816,0.04631502945658651,0.05426843156800469,0.03243707009131969,0.02681980614306573,0.024002973485507242
-0.03361279039448021,-0.0442270599514432,-0.010808408820916604,0.03902344985882696,-0.01137258816191865,-0.027226795137269045,0.050830898642589425,0.044458391982669154,0.05318694908465271,0.03230442029276403,0.027676239791610487,0.026425699309038205
-0.03718202062321599,-0.04481789372385665,-0.00775426023434834,0.04104617498994145,-0.014749829585707768,-0.02596745418315722,0.04874997148202667,0.043054686234222345,0.052640189219006706,0.03231221389456525,0.02821826320911926,0.02873572090598359
-0.03872441873381465,-0.04404031087320327,-0.005376510294428408,0.04142573908711831,-0.016754033846446442,-0.02439104524471954,0.046609026112955,0.041199313421951336,0.05183105593785732,0.032284230841035925,0.028271036485327073,0.03040321527028448
-0.038401429067238514,-0.04160263003907563,-0.003228147937118945,0.04007475604323565,-0.017686493470051953,-0.02212574496751067,0.044456310617299676,0.039870451030766293,0.051398749676522526,0.0326114823379933,0.02799993371329197,0.03123133598370653
-0.03642059602269564,-0.03817319764384366,-0.0017371117969787976,0.037413132956929135,-0.017439772203871128,-0.01971618757147327,0.04229905465058153,0.037840660501223776,0.050492126395145595,0.032722464883596515,0.02727259598888919,0.03170406564894977
-0.03390216060837389,-0.03382947643784206,0.00010142803210955738,0.03401077411170966,-0.01709014087344903,-0.01668087060377356,0.04014895246947995,0.03626204277456408,0.04994104278769078,0.03308818862656256,0.02688576398043776,0.03206726550776633
-0.0329605241409745,-0.029732473437937133,0.003189669376470484,0.03150563364233054,-0.01818085949610557,-0.013120718742140578,0.03784923188412284,0.03419584683000597,0.04922051106183097,0.033371653461760145,0.028068093492430606,0.03354187613800389
-0.03364522780511132,-0.02564908770349645,0.007821772622181778,0.02978317937005086,-0.02087789843912842,-0.008770968917405432,0.03547378767348718,0.03261379522590428,0.048959383793614385,0.03395799616424707,0.030754078130170285,0.03583560129270983
-0.03541247463890539,-0.021533902198785194,0.013501644580680853,0.028591140960061635,-0.024654798008569713,-0.0038643738037092666,0.03288756056069994,0.030392403726153407,0.048283908263569784,0.03444522698684781,0.034576970728577044,0.03877917610163398
-0.03773161452203511,-0.017082330655900667,0.02007713353875012,0.027494251180929165,-0.029139977534799365,0.001659202318782612,0.03029035855856573,0.02823407036311957,0.04756241675422942,0.03517627829000502,0.03870458003461195,0.04175548516937463
-0.03918288629036535,-0.012294997065940023,0.02626092127769486,0.025814778504297628,-0.032929631652313905,0.007119179242503386,0.027819395141566415,0.02442852563818521,0.04536215303210875,0.03560073555821473,0.04135533466205197,0.04413882953015531
-0.03982212210467805,-0.0069893935267981615,0.03228641418068612,0.023469175357771314,-0.03617225408129348,0.012728579323577705,0.025507691861876812,0.020099134966150376,0.04248202789984574,0.03611831027346804,0.04258948416925878,0.0456791163585753
-0.040243957670701956,-0.0017779616834788083,0.03809589464572675,0.021076282222200843,-0.03915607730304723,0.01816491060257763,0.02320280041656964,0.014406101223919708,0.038374488336993307,0.03634630714260037,0.04294930481405138,0.04699382352026829
-0.04090314385327248,0.003539557482105814,0.04428939611596179,0.018741012340933665,-0.04245167747112563,0.023853995579249433,0.020720923188056913,0.00869067359323726,0.034115622015571084,0.036653168137960955,0.04296150511995176,0.047844724736771246
-0.04281709275458233,0.008593882145527771,0.05139090498381368,0.017177073223655172,-0.04691610843430805,0.02991939080538996,0.017476184242560377,0.002420423564836051,0.02952943186545922,0.036582997940936744,0.043792152793891585,0.04861541411546712
-0.04583661191766468,0.013547799564373433,0.0594116515869728,0.01620540812032939,-0.052475293562465525,0.03644693245617706,0.013614947281093002,-0.0031883191901410255,0.025507268226339967,0.0365678268245038,0.04549666466544883,0.049178379847003684
-0.04936656941810463,0.018262716300791165,0.0676635413201011,0.01562164447301694,-0.05846426528675989,0.04300466052119312,0.00925660132287347,-0.009370478180270873,0.02105151233919725,0.03617676181464456,0.047470700802012836,0.04956760183592965
-0.052598558263268314,0.022624874090909772,0.07523665334723986,0.015054422601573993,-0.06397414069562851,0.04905749116425889,0.00477745381425998,-0.014737418249737297,0.017135084250640042,0.035943432301126135,0.049676003534508434,0.05003865161868814
-0.05404208326638064,0.025827305455127122,0.07988134748820992,0.014180686644720391,-0.06703967266010356,0.053026611094337046,0.00064193023723498,-0.020104404771438333,0.01297794248117078,0.03562242161379842,0.05167495159460838,0.05152661818287329
-0.053689381323021784,0.028256519108013786,0.08197664031612281,0.012780749416338798,-0.0678486503208488,0.0552946037128479,-0.0029716630646927115,-0.024329726622502792,0.009467504580195829,0.035657523147816214,0.0535052994464825,0.05377487256458608
-0.05207306146464697,0.02983195892798226,0.08194041623966347,0.011182787241156802,-0.0669130776625132,0.05604417635740263,-0.006278251344282156,-0.02845835523732933,0.005917229942536733,0.03562147667518636,0.05547328464737707,0.056884320944028836
-0.04971926699096409,0.031603065392645374,0.08135242889305612,0.009101801409232455,-0.0653298878767506,0.056608158281122915,-0.009145542027364294,-0.03162644691871974,0.0030106105731440495,0.03583970474479187,0.05752928338929658,0.060097077663565805
-0.04781678857649304,0.034772361628675905,0.08260144038989511,0.006551279651371564,-0.06498617575520083,0.05882047701012031,-0.011759053428805571,-0.03550470180549547,-0.000497451792636601,0.03564433111785483,0.059532122316282646,0.06251788032135686
-0.04645012006912657,0.03955747476369699,0.08599042119930528,0.00344374768208498,-0.0660693567445938,0.0629389479470234,-0.013990587952991853,-0.038937111751169616,-0.0036420860647881454,0.03553418579273117,0.06157270802903485,0.06398335296306586
-0.045168965163382424,0.04532990772743295,0.09045650514870647,-0.0001082017520352262,-0.06778446525575892,0.06810133300295701,-0.015877479279711528,-0.04294017442954169,-0.007270749674742456,0.035139913505978504,0.0634971052346881,0.06499735985943822
-0.043991719467031176,0.051753707514046426,0.09567433854911951,-0.003947058104329661,-0.06993494185150727,0.07394926889188728,-0.017143568663087954,-0.04618965326754227,-0.010083661407325629,0.03524009613023901,0.06567073638023053,0.0658724976263807
-0.04264660864679209,0.05729060784133103,0.09981759686893578,-0.007414472918228778,-0.07138592154372882,0.07874531273073256,-0.0176589478375156,-0.049444150757728955,-0.012352501929645708,0.03593179100508825,0.06859051670628208,0.0678677355449136
-0.04118660730874231,0.06220544838958434,0.10321177601052076,-0.010635828174459464,-0.07232518211709503,0.08279185456219529,-0.017369490747839073,-0.05156034964851681,-0.013152883343218817,0.037660483080383306,0.07224187613913573,0.07075387354693202
-0.03994591664937352,0.06695341229757146,0.10664692905651171,-0.013650074806448663,-0.07335375858530715,0.08673245478367476,-0.016238471674033774,-0.05383630816428419,-0.013538538443723993,0.03993324809663826,0.07657666437168419,0.07441449016746354
-0.03891119539856876,0.0717338882747034,0.11034472059922369,-0.01657809806948018,-0.07459807613917349,0.0908225202289004,-0.015170506743935972,-0.05541402458065418,-0.01320670565070731,0.04259011731238384,0.08088664462197886,0.07795314172820805
-0.03805562503035506,0.0765655665936675,0.1143571422866138,-0.019411027268667447,-0.07613033580175342,0.09517869741521173,-0.01592200558307005,-0.05808966179380256,-0.014438469929035929,0.04400660421342962,0.08377409352258466,0.08017045631275475
-0.03739054594630665,0.08188183102084695,0.11912124719969722,-0.022382521955543706,-0.07817503899623056,0.10023639995864601,-0.01811227264681805,-0.06058760133055248,-0.016024461808880647,0.044837287493219455,0.08548530555914371,0.08106604600051133
-0.036773512552394916,0.08729472358712838,0.12408643158156422,-0.02535144420970316,-0.08036086857543312,0.1054990426447626,-0.021619091246040778,-0.06400495364638037,-0.01862073615562129,0.04492760541685413,0.08635298636319559,0.08132350125188252
-0.03627616664780429,0.09382441739374757,0.1302928978009015,-0.028822067991356573,-0.08323456900391923,0.11196359137559014,-0.02394351385629713,-0.06635268881993506,-0.01989882501827486,0.04599007423746691,0.08782659617788742,0.08203954519042314
-0.036089558721539544,0.10256665840373377,0.13892814376533494,-0.033241554568934566,-0.08746320616308091,0.12069613050885211,-0.02085914007319682,-0.06748070665663701,-0.01858627031885539,0.04978936910434615,0.09246366342406129,0.08576790719318537
-0.036004169917527265,0.11357846701758333,0.14984070090940915,-0.03876649493754473,-0.09286514056722571,0.1316504707091101,-0.012934318778978014,-0.06637579985837415,-0.013814178550138518,0.056584594276059746,0.10007717184261122,0.09213658269592269
-0.035613883544748884,0.12604343630978984,0.16184194895742499,-0.04516750112989983,-0.09865931875836027,0.14385045762738635,-0.0021539277612994965,-0.06491922938352582,-0.007740846717137595,0.0649128341088142,0.10959284068194589,0.10034502483502175
-0.03484462239704622,0.13984127645411354,0.17476247448462542,-0.05244278312698719,-0.10473331593071804,0.15717541594486437,0.008504383786965332,-0.06295076067406442,-0.0004374121280792262,0.07398695966677173,0.11964872932647658,0.10896605892348507
-0.033504562797394825,0.1539258603954464,0.18742851431714638,-0.06013920036700901,-0.11042716274917233,0.17056864604557134,0.012719276096272037,-0.06384162846211136,0.004435777323979782,0.08068255855319173,0.12732695956332288,0.11560288916499355
-0.031381653928082266,0.1679685535598159,0.1993045434333121,-0.06822095238806243,-0.11536188522674523,0.1835951089705796,0.010477864909140643,-0.06642196791031399,0.007765458651314517,0.08528790311833336,0.13248175271592913,0.11990964501188167
-0.02891361492920531,0.1818697696808656,0.21069665328227186,-0.0764021404764455,-0.11989912232317171,0.19633350515788583,0.005018497507488595,-0.07141905744251625,0.008992359874214583,0.08802546465361796,0.1360450786074301,0.12297071351973449
-0.024260638185427487,0.1939283453967352,0.2180847911107681,-0.08477519807800497,-0.12133397750343956,0.20613939642064108,-0.005770817875724546,-0.0771860408787056,0.009160645729754526,0.08942945223093729,0.13807171774171537,0.12454607289001025
-0.014524834597061899,0.2011783561588479,0.21562333357949157,-0.09328888231048682,-0.11525464987801343,0.20854035204227428,-0.024892176989672818,-0.08406606591653625,0.007246408357557141,0.08956428834627059,0.13924262160619127,0.12531581115689497
-0.0005056744948259545,0.20390716540277243,0.20439396491976047,-0.10170611813454791,-0.10260112670184555,0.2042264502233078,-0.04960474586135456,-0.0905758710152821,0.00458285665036677,0.08903651980375026,0.13970093898771246,0.1252459655732857
0.016971129662778802,0.20244543951544572,0.18556041578298918,-0.10975173497295987,-0.08438528830215113,0.19396670903310886,-0.07685335631502824,-0.09832884385238595,-0.000430581647540771,0.08683735687283733,0.13881391559773057,0.1240164054572506
0.033170435782768765,0.19881090409366683,0.16583316630805348,-0.11608594244946573,-0.06634412275654712,0.18217899313684363,-0.10229690598518208,-0.10610829601484602,-0.006476431439001787,0.08368877879698057,0.1372320658742245,0.12222523472220852
0.03986924237355375,0.1965935039861065,0.15694825162513584,-0.11836720633000135,-0.0584942016315516,0.176625231488843,-0.11962768936438234,-0.11589483111705536,-0.015085742323617266,0.07912905665479564,0.13581328843674753,0.1212312331771661
0.037326198811780446,0.19599853037161913,0.15885644447557948,-0.11684413609620321,-0.060683271252041475,0.17737792168732913,-0.1277963089298494,-0.12575311052306318,-0.024349846668693418,0.07402088611995848,0.13462313173211904,0.12085971025553745
0.02758843367629225,0.1953770184019054,0.167880018816179,-0.11169678484890402,-0.07003582235234465,0.1817388356852504,-0.12756742675077296,-0.13651624219021258,-0.03545150496213643,0.06793376066570236,0.13352306955847434,0.12102267723150527
0.015492164965049583,0.19494248657889565,0.17943289383793962,-0.10545118625006426,-0.0818480964488566,0.18746039558557898,-0.12206789139882136,-0.14497092958827912,-0.04490317104265889,0.06261664124760329,0.1326086422597084,0.12144281832670716
0.010959922412809011,0.19359823231837903,0.18257378867205806,-0.1024686797838891,-0.08569528944936577,0.18839938191604713,-0.11863897315939373,-0.14987499148113695,-0.05129882558482177,0.05903603456907719,0.13159662602336294,0.1217101595978259
0.013602101041973463,0.1912060987812262,0.17755382497306585,-0.10251199385710492,-0.08189368132518576,0.1846173351816963,-0.11716013920272514,-0.1497029442524295,-0.0530803110796084,0.057763001901542876,0.13040721371993969,0.12148387676807977
0.019915516870029897,0.18851537763588908,0.16859812428573856,-0.10419271177156177,-0.07431349076692355,0.17864703227531115,-0.11531870906401291,-0.14687283485573138,-0.05269534501575509,0.05771862501111848,0.12918213412829546,0.12117021705803979
0.02588631293286613,0.18353325463357073,0.15770578630749102,-0.10456313373014674,-0.06593900956464802,0.17054236968679573,-0.11219856039841394,-0.1410718017500208,-0.050304276232445655,0.05814452326304377,0.12698056337191913,0.1195862685184572
0.02267371571236635,0.17264128459676578,0.15004494782474068,-0.09743605548488013,-0.06373980115795935,0.16118654637189989,-0.10477780691564383,-0.136719502888535,-0.05164446482079881,0.05547833159396372,0.12220095807424883,0.11534423974598844
0.010693202549861334,0.1565981432056422,0.14596110059569523,-0.08342024021187262,-0.06768043154398848,0.15113307344746088,-0.09357751848474023,-0.13244207419406048,-0.05487128812729916,0.050540677208936666,0.11508900461949761,0.10847715782034988
-0.005894122355353921,0.13640566720603292,0.14231672352287297,-0.06505797158342959,-0.07412081493440517,0.13926894686982638,-0.08127172747101867,-0.12925989060873053,-0.06065181354117291,0.043500540737176685,0.10610494279137037,0.09960523162427162
-0.02429823579037134,0.11483267214347519,0.13911809008842527,-0.04513269161141223,-0.08168239272185938,0.1269584528995261,-0.06925149123193187,-0.1255845176237476,-0.0662949788085028,0.03599574422352956,0.09643013521284027,0.08965838652877303
-0.03817489399328905,0.09673911005634818,0.13493513224947815,-0.02918205957226625,-0.0865130575989326,0.11585304772204548,-0.060296946588866425,-0.12273398575756847,-0.07189004725263519,0.029188434176795213,0.08822028035307203,0.08089643955837472
-0.04702861516478112,0.08284245848283527,0.1299837360932078,-0.01783173174146896,-0.08847110326343798,0.1064192964761847,-0.054728485546572184,-0.11911758433092152,-0.07519270231460103,0.024097297206850422,0.08172904460831144,0.07345745222556921
-0.053542757711989866,0.0717088303192053,0.12548943405933646,-0.00902079797962662,-0.08949934516954006,0.09858315028181078,-0.05173607985936575,-0.11745244374735318,-0.07963892695762226,0.019075746262989076,0.07639309039308122,0.06706950657377396
-0.0577374979151331,0.06403144562240624,0.12211996234410993,-0.0031043698924963074,-0.08993404369668524,0.09303928215920017,-0.05064770233572297,-0.1159833368441403,-0.0826146731725095,0.015080445808927834,0.07219806325696639,0.06180054762556218
-0.06096172068277536,0.059121742483338006,0.1204468316124791,0.0009507471065146017,-0.09071857738541159,0.0897610403189135,-0.050014429407594985,-0.11696884531674873,-0.0866215956039349,0.010687409260989414,0.0684328893275985,0.05756516381984459
-0.06346034238018326,0.05698078653102583,0.12072406189841083,0.003246727241017372,-0.09210165812190799,0.08887527885917329,-0.049582388242737266,-0.11829265940554262,-0.08908786783024929,0.0070228886890386704,0.06515344467659163,0.05426063082813124
-0.06438126895029703,0.05809668121446441,0.12263566174476628,0.0031451512110177004,-0.09351138670289592,0.0904541522954287,-0.04967140526525889,-0.12188332169017438,-0.09275818722664175,0.003374985604108376,0.06258545031016242,0.052185379853191306
-0.0635908497863074,0.06123290042737471,0.12482948181714805,0.001175177567249307,-0.0942059829693613,0.09316967069001025,-0.05078227846639146,-0.12461907180503544,-0.09400850148392914,0.001482204325093153,0.06107509858471757,0.05140362284918572
-0.06062545199762366,0.06421676824873777,0.12471301574589076,-0.0017933006336726901,-0.09266660452317438,0.09457617842147789,-0.05472869578360745,-0.1282636019292141,-0.09549623381688374,0.0006641419449738957,0.06132074559103261,0.05255021170894025
-0.0563835728793518,0.06635020952627853,0.12250801512992593,-0.004979482888726807,-0.08945183207422785,0.09444705644919671,-0.05991046208857661,-0.12893693074294993,-0.093397193786805,0.002473972588122494,0.06272720919437201,0.054728994867719157
-0.0520302579550591,0.06586518869331526,0.11760556236389659,-0.006887110451482734,-0.08483096242706127,0.09162244698263931,-0.06283122485199392,-0.12440792089523571,-0.0881606199667097,0.007453747508940024,0.06389218461188595,0.05659001908343912
-0.05034894670797855,0.06409839922993385,0.11418107747147373,-0.00682847906480497,-0.08229050400758572,0.08891710959809107,-0.06317329104727487,-0.11835642007940608,-0.08189670420997727,0.012370776138033656,0.06422867651525578,0.05736651691729409
-0.056343962688294114,0.06344446556366948,0.11958277031086015,-0.0035075974959312213,-0.08802115673829804,0.09127406484684385,-0.06035595838950455,-0.12672925235383528,-0.09285714887998946,0.004151201564920773,0.06228841932391852,0.056010846303945226
-0.06886436247757204,0.06264031810560183,0.13153948544794464,0.0031263568125030968,-0.10030402245591098,0.09696511397766518,-0.05229900550307539,-0.13851176140552887,-0.10713299202369983,-0.008760833465640735,0.05792051632352453,0.051724900639185584
-0.0820824582546824,0.06190816597351712,0.14509701445233303,0.010105796084518042,-0.11374438028580966,0.10376702959495551,-0.04135640733836384,-0.1432988894023382,-0.10359107741920003,-0.0077948791841433,0.0538387605445267,0.04655140979915993
-0.09969356146934946,0.051646563648726086,0.15331720641883612,0.024066183609671422,-0.12669195571914948,0.10311036168974594,-0.014352696078686738,-0.1257482567249067,-0.08808766714192105,-0.004612001055790582,0.04377815583155967,0.03397886592320399
-0.12630564822840354,0.016131865303927045,0.14281771061257448,0.05512831520707223,-0.13473174677149144,0.07973851166727067,0.04926689958323611,-0.07212208724393201,-0.09577492684880387,-0.030357651703869868,0.01917701586235966,0.004839822197460376
-0.15692412286086627,-0.04170894447040393,0.1127448829242429,0.09942214105636495,-0.13492015206523966,0.03505555786956966,0.14419230697121327,0.028210375382927245,-0.08666610539777579,-0.060568898351238826,-0.017962524650713317,-0.03857851178617813
-0.1929365199613485,-0.11985574084894525,0.06962787308087229,0.15706536366320398,-0.13113498235555993,-0.025602304700547456,0.26418163271081085,0.16859342347244308,-0.02128591099389402,-0.06933247918880567,-0.07257400769200881,-0.09656636150284252
-0.20354067320582508,-0.19293224094517555,0.007431477340429168,0.1994051260655794,-0.1051242401053558,-0.09301901663285521,0.3776053343327118,0.35244602325806473,0.1318816426204541,-0.024230449148727552,-0.11354527776743749,-0.14662809965438633
-0.13811059565680972,-0.21286319856887992,-0.0808264270963214,0.1757930567028897,-0.02846478954115122,-0.1484534079273616,0.42288024402431723,0.5578348339160072,0.3818904360624642,0.11174083753338628,-0.08314668013196284,-0.14620371221876885
-0.004691187654383589,-0.18763497370793072,-0.18931410714464358,0.09504485883527522,0.0920957741275223,-0.19108194046502616,0.40753004776476426,0.7777320150694376,0.7309307551300365,0.33372548168834315,0.0027258925032426456,-0.10419186616536485
0.18001669392949723,-0.1486488950311328,-0.3154470849847874,-0.016522313716896688,0.24744965003500358,-0.2298341179818659,0.37623011611197194,1.0171926686077561,1.1463145745453702,0.6066754339065167,0.10364593310245503,-0.049245507013655467
0.36707328488095325,-0.10005780544986874,-0.4333819787714895,-0.13347125873988852,0.40001694357033074,-0.2589995256292786,0.30827332139770236,1.1770237976920719,1.5179548470784288,0.8593452328321658,0.19577853742002704,0.01150232542576329
0.46568521796840556,-0.048650172692709215,-0.5023422594213754,-0.2109196185720593,0.4831615111215388,-0.2743147945532303,0.1660391789356315,1.0903932789872381,1.6660203434608984,0.9894551511489098,0.24582980139511026,0.06884356144829627
0.47455760131557406,-0.017799827875780407,-0.5200932804020435,-0.2327447775180071,0.4960789790684133,-0.27813826943014475,-0.006389764880809359,0.7648716061600886,1.4857073578765543,0.9028911245764978,0.22244269931357072,0.09926759849113476
0.4200541231533391,-0.033777422396034276,-0.48793516640654566,-0.18849176100334766,0.4553867349083547,-0.26521688893195294,-0.14376849275478273,0.23381224834810876,0.8564579851840419,0.4982758938555095,0.08507522628033504,0.07392602236070624
0.32779271467266874,-0.09086401191210013,-0.43632640131235145,-0.10331357014325951,0.3863783028542564,-0.2569050517670442,-0.22714476159091734,-0.3274922966002893,-0.1480438728257403,-0.17530787818483132,-0.11609591539670938,0.006115544039564444
0.26239684495568744,-0.17075166379634135,-0.43084342176387136,-0.040388814067812064,0.3475479969467157,-0.29599053521293295,-0.2319393646211112,-0.5069894345716899,-0.6230271081217527,-0.5495080280619455,-0.27055918764399134,-0.06794466896011134
0.2246262597810274,-0.25798605582933737,-0.45974787057996586,0.004192442139715655,0.33747704116267596,-0.36172659212344144,-0.1655903826844039,-0.4954033478153845,-0.7353167617321703,-0.6467056507846581,-0.3763733084115469,-0.143018877513672
0.18688690966750315,-0.33142885148997425,-0.48738387851823356,0.059081278670081706,0.3336503608388602,-0.4128597837911719,-0.0704464142757177,-0.43587370624370075,-0.8298774899831156,-0.7495151382764788,-0.46157580702885087,-0.21922491855852397
0.14407695659986847,-0.3716644442571702,-0.4935893782158257,0.11023681637958647,0.31991900913205784,-0.43341687195027034,0.05180650856464258,-0.3449669950710008,-0.8273477055861937,-0.7731351363160638,-0.5026353004006691,-0.2754091783607771
0.07328567665190942,-0.35588153705953157,-0.43651334362277044,0.1459192230694606,0.2567367177556027,-0.39540562083382225,0.20384794740315532,-0.22865084821279055,-0.7279503284057445,-0.7035014546108364,-0.48415117174457833,-0.28501932661445667
-0.022264621967486898,-0.3015577580707166,-0.31748352294850957,0.1723373782564396,0.1482510067502096,-0.3074275550277599,0.37572471564177423,-0.11953434512347662,-0.6226941147149763,-0.6117955125246056,-0.42829568304729243,-0.26168883090014555
-0.12028364346917543,-0.25347726125540204,-0.1584518353996385,0.19327999905129017,0.0191470303993369,-0.20453256551904914,0.577207080131386,0.014566645079783213,-0.5341563544826331,-0.536292739538617,-0.36720447053316335,-0.23701209453831107
-0.21632428095524997,-0.21398061431254678,0.012873228878179028,0.21164990620470803,-0.11511448022504142,-0.10113677775014382,0.7736293325152306,0.13417747782222741,-0.48313458687735417,-0.47584328072299,-0.3069771821313595,-0.212187914434422
-0.3013227546994483,-0.17589201290718215,0.14273565793545004,0.23302215329742754,-0.22264039591908574,-0.017316450900513442,0.8903101925567295,0.16878096892175037,-0.43942766119047205,-0.4038109085105516,-0.247508717985217,-0.18441291718964176
-0.3702455135089789,-0.1500468720761508,0.2269136269190269,0.2576138268817424,-0.29870941362266545,0.03850145078182601,0.9574128021759513,0.1402520387542486,-0.41445762458152025,-0.339259326579659,-0.1995105831404472,-0.16141278225853264
-0.42838195491966097,-0.1453559044922365,0.2834229842399048,0.2862600840959939,-0.3557914163014854,0.06857087723738954,1.0659562140907273,0.10240453163581019,-0.407985349921741,-0.31062484810260627,-0.17193022727466428,-0.14681766174286492
-0.464835324448936,-0.14773903635749414,0.3120570549120855,0.3071859906504427,-0.3882773189133202,0.08094537624239828,1.1527802229021367,0.053725613298666264,-0.41554308994978956,-0.3043419619251102,-0.15678758281926594,-0.1357058033701238
-0.4637952607228467,-0.13398530661936053,0.32557417787929593,0.29918779895564407,-0.39446944005345824,0.09554060837184356,1.112172562620116,-0.001776160089308193,-0.43552350837191817,-0.2997808235289306,-0.13962837622372984,-0.11992047897121616
-0.428214077908335,-0.10403522380369183,0.3260412866071729,0.2643120839267135,-0.37697497529647617,0.11216472069799516,0.9602108246028065,-0.051832037865430905,-0.452184927817331,-0.28891894143835734,-0.11699112472088252,-0.09793036183532598
-0.3624091423545647,-0.06222859322330654,0.3024382068957772,0.21088566279680054,-0.33240014036522797,0.12085324054914998,0.7073495086707884,-0.08910391092180835,-0.42615121609454076,-0.2508447127849816,-0.08442208450880342,-0.06759003281186023
-0.2817583139661757,-0.013445418183107568,0.26771527533389644,0.14787794827896517,-0.2748310016450783,0.1266286776806102,0.4246652809996987,-0.11941204888255119,-0.3755535731032348,-0.19675050750937578,-0.04587674721058074,-0.03320449890394864
-0.21507565333163822,0.026562336423879132,0.24084401849239365,0.0949069450182055,-0.22809560220436542,0.1330109615029639,0.21440776632209266,-0.15346262338376573,-0.3366562923549734,-0.1595770826824281,-0.015929241610212152,-0.005837435540002372
-0.16532504571925824,0.05810698887142586,0.223285934549838,0.053992476654580054,-0.1944030344685032,0.14039745868527806,0.08400008277970908,-0.18901890508644326,-0.3068748434509065,-0.1333969445485173,0.00792121352693248,0.015454708689472161
-0.12644801938045952,0.08920295041872521,0.21570061309327965,0.01886751465787673,-0.17108283511305897,0.15240687334697262,-0.006891830015782773,-0.21723190980701718,-0.27259035022125827,-0.10044596014186723,0.03443649806285506,0.03625646860184567
-0.09954972034637134,0.11530146597284892,0.2152513642789613,-0.007884200867347105,-0.157311142483495,0.16547820370788882,-0.059067836150163165,-0.23883358760858509,-0.24421694200865907,-0.07009088144974546,0.058189762800595166,0.053636639421001324
-0.07815276764641695,0.1316075214624424,0.21023176716804648,-0.026832172088290304,-0.144081758129613,0.17118424857371084,-0.09940056524292229,-0.25110709644035867,-0.22261964770106574,-0.05055034911630008,0.07234153302564873,0.06517047159673262
-0.06258101430907542,0.1390420002085719,0.20186849950104915,-0.038269983483261154,-0.13216598683654981,0.17057371308939928,-0.13264404344314534,-0.25522146788186173,-0.2107552304997169,-0.04088089689797967,0.07800614875875334,0.07134149874703159
-0.05918909196013657,0.13643304388198654,0.19582284886807608,-0.03869250130751615,-0.12753522750274685,0.16613021855688884,-0.14246000450008986,-0.2537434575939018,-0.21207153339821422,-0.04229920611371496,0.0753073699566083,0.07160217990135209
-0.06269573309561319,0.1282101985741059,0.19113788448750668,-0.03290555680802077,-0.12704503513963952,0.1595971279543958,-0.13918622940391467,-0.25021821580336395,-0.22253662326921184,-0.05052735843176043,0.06791257104355453,0.06828026378277283
-0.06508903025570136,0.12302338854928788,0.1882766273555794,-0.029109488300255,-0.1268641495368479,0.15552929293718,-0.13515187340197501,-0.24837560739652695,-0.22778873456223242,-0.05420215851746213,0.06384470293950972,0.06641071183262376
-0.06587750545769118,0.12133316340697926,0.18727568941773687,-0.027834257612968902,-0.12676219232711702,0.1542035091654263,-0.13250027203296466,-0.24961055720293723,-0.23003758338798022,-0.053871357872575694,0.063290613649403,0.06605591508439321
-0.0644679466817387,0.12117701474901969,0.18558622354087145,-0.02836479194389821,-0.1251975685742295,0.1533318376165842,-0.13950922326554055,-0.2527125887071926,-0.23054751155524258,-0.052307320002073845,0.06383621444108958,0.06631179313658926
-0.06142898649813004,0.1225662894406873,0.183802837100699,-0.030471769420995876,-0.1227534914642464,0.15319486940912502,-0.15184256454081882,-0.25690230421580623,-0.23069926369657023,-0.05015718781216553,0.0653704031464523,0.06689147002249458
-0.06062628146536842,0.12273359996133744,0.18309734115662124,-0.030903079369404465,-0.12196589543280253,0.15296243762140768,-0.15714949687372118,-0.2584733567725792,-0.2317969708390624,-0.0503968948384272,0.06549801861256549,0.06619674319719629
-0.06135309728910951,0.12205843128105454,0.18314156478011764,-0.030218843682774228,-0.12231932772233346,0.15265776545930013,-0.15701292731052532,-0.2579892868599877,-0.2349533275757837,-0.053088943293479074,0.0643437268006055,0.06431225262452094
-0.06123803011321379,0.1225358971611351,0.18353194254740385,-0.03055540476652595,-0.1224132153510144,0.15309649387640684,-0.15707235863723581,-0.25678791491624503,-0.23573342282826734,-0.05519521489637221,0.06386173513459129,0.06268074655330172
-0.060561797992817946,0.12374213932560431,0.18412877765466162,-0.031576516174493106,-0.12232967299657922,0.15399289968200258,-0.15624466338513346,-0.2553586082525165,-0.23619387036362163,-0.05736579761162963,0.06323210690085168,0.060896375474634445
-0.059180070026926115,0.12498933463479261,0.18408626929065794,-0.032962111391741294,-0.12159257350428614,0.15457864350251632,-0.1566746649692804,-0.2543665451357702,-0.23571504160669768,-0.059518607117714874,0.06128625860336039,0.05879532679791631
-0.057058333542689695,0.12634727354307837,0.1834299810921043,-0.03477877568834661,-0.12019535637024824,0.15490489642306818,-0.15796398280517124,-0.2540100704705549,-0.23539131160771504,-0.061644431586803154,0.05826740390156317,0.056387545929311486
-0.05477469848171183,0.12716013953032435,0.1820932072118899,-0.03640818887874375,-0.11839581624344127,0.15460245458564378,-0.15809108806538344,-0.25317497123965893,-0.2342835007830844,-0.06410608564568665,0.05383445711757998,0.05343824135876727
-0.05288060340198751,0.12724410332442612,0.18039246754046875,-0.03746938087071479,-0.11661327643382459,0.15375682116713282,-0.1572499940389271,-0.25172311900090144,-0.2332177292507445,-0.06640883048033704,0.04908586100513443,0.05035072003628457
-0.05207971290717586,0.12638039933683293,0.17873246344624846,-0.03743316888211928,-0.11537455184984574,0.15249258431869198,-0.15689663784821647,-0.2488961387868296,-0.22982938868644465,-0.06690400659341589,0.04611724419262134,0.04820707774868914
-0.05229183742758958,0.12451892943231041,0.17698998499172136,-0.03633971101265132,-0.11457930266828845,0.15072081628866885,-0.1564258633625997,-0.24476368225493225,-0.2254949238656177,-0.06601276945441446,0.04476145966825179,0.04672057820105217
-0.053321390036389464,0.12136260489644941,0.17468971680149,-0.034123835512209356,-0.11390212243237786,0.14804744140763665,-0.1561868457476398,-0.23937821184014754,-0.21929298884729187,-0.06383091146371381,0.04427624786803482,0.04567815417324698
-0.05377524161293744,0.11744162149879697,0.1710289589521813,-0.03181201919351236,-0.11225696494073834,0.14431778936039522,-0.1560887453558525,-0.23338829922972415,-0.21303748049215235,-0.06145372331561228,0.043737214833793135,0.04421829960353583
-0.051261914042397716,0.11338751267672598,0.16436596393679648,-0.030982305012859663,-0.10765569583355371,0.13898710557741376,-0.15656000846862025,-0.22772034184552967,-0.20696463265180623,-0.06049818658700324,0.04100565185173517,0.04097570524765118
-0.0458734592573243,0.10920901376905964,0.1548023536989505,-0.03161029820087077,-0.10019325832122362,0.1321113057721706,-0.15719033462428944,-0.22223811465799626,-0.20196316310294193,-0.061073225338169904,0.03613131734596629,0.03586976511482558
-0.03814913683678695,0.10462809252213925,0.14256190339357835,-0.03324147211725129,-0.09023991525416568,0.12367663976483734,-0.15826809579581005,-0.21631828572028491,-0.1962618053052298,-0.062288366550749055,0.029894264292272488,0.02946908506647974
-0.029687352187774803,0.09908342189490128,0.1286563650480909,-0.03478426992830678,-0.07909248840601427,0.1139166891188106,-0.15901252137138702,-0.2092070302558616,-0.19013898029965345,-0.06378013795905223,0.02274247239473566,0.022191538978829386
-0.023670062208521844,0.09119901583478504,0.11482063769961669,-0.033867040941386435,-0.06919214932011312,0.10303241180485813,-0.15900062857406902,-0.1994016321015133,-0.18106705646451254,-0.06407953696034777,0.015764102164864267,0.015332237761293398
-0.01985719374919667,0.08124759708326972,0.1010861012325853,-0.03076728712118714,-0.06043222027267872,0.09117776141917056,-0.1578611830168351,-0.18681070252183365,-0.16983832772420757,-0.06321665177938987,0.009094319366008442,0.008819095432698721
-0.017128867500241434,0.06959250646659125,0.08672867822835935,-0.02623845406179565,-0.05190060027246412,0.0781624784043544,-0.15616054982901864,-0.17204456770717114,-0.15609461449956266,-0.06162721087360771,0.0020889440337819795,0.002218293568124773
-0.013612729954531536,0.057369317343300766,0.07101434284092539,-0.021818141123281575,-0.042289166992056836,0.06418784594666074,-0.15346729500616857,-0.1549431659137724,-0.14022825672491956,-0.059038693787552214,-0.004925312709593974,-0.004559936385908566
-0.00555491394991672,0.04638919319233077,0.05201920655776107,-0.02030715587330785,-0.028757329619944313,0.04919285570039221,-0.1501407765481593,-0.13570740578012877,-0.12081913815156865,-0.05493832501216713,-0.011782323654906786,-0.011708141766173238
0.0068640065591472725,0.036780039585488956,0.030048623869023173,-0.021700819936149054,-0.011548918218345128,0.03339546461705743,-0.14599333033590547,-0.11456526830418,-0.09909285590368921,-0.0496006601699998,-0.018473202423081026,-0.019325584809449903
0.02217422397920723,0.027941213148958196,0.005950459238710058,-0.02492385786546508,0.008179189018773526,0.016921902380172188,-0.14122352627430482,-0.09148635162436543,-0.07432088773780027,-0.04283338004603635,-0.024831856682652285,-0.026888462648600103
0.03865550814289119,0.019124855186988098,-0.01931221250496643,-0.02876130856910064,0.029074605290098143,-0.00011056975547714957,-0.1363413224685486,-0.06764419174762547,-0.048871051033495136,-0.03560779823148108,-0.03125963387939745,-0.034949370246687136
0.05271293721949455,0.008349031011604295,-0.04414318566175781,-0.030396922548978564,0.04852081584556097,-0.017880247544956974,-0.13298767193920136,-0.04512839015740134,-0.024495051189362897,-0.029334793229535312,-0.03866628458820264,-0.04415646491384776
0.06424665424772133,-0.004075780654092743,-0.06813230694422025,-0.029954936248622565,0.0662650842169102,-0.036031097482487146,-0.13074217616233016,-0.023887040700860788,-0.0022033113815760658,-0.024139114467159783,-0.04687902015968907,-0.05434571769019258
0.07448365691479451,-0.017352043553600868,-0.09169651714330346,-0.028434809094546386,0.08313394505205877,-0.054381011069191576,-0.12956246448902237,-0.0037792141239557774,0.01925149599938212,-0.019547091651066502,-0.055586592021027996,-0.06520225339981872
0.08438987190111513,-0.030412072438318175,-0.11473257416840402,-0.026876768836859556,0.09956973805979846,-0.07236763702676209,-0.12825890717208452,0.016106305089681836,0.03935339876386712,-0.015386768898633527,-0.0644109658997832,-0.07568647338428075
0.09638127423863027,-0.04143519881115109,-0.1378309326699453,-0.02738547360156963,0.1170966032711125,-0.0894174288807648,-0.1253528286084694,0.03747826267092172,0.060042233632566465,-0.010706531428918921,-0.0726629591021608,-0.08371492634652739
0.11021635979854007,-0.05021260890062217,-0.16053367688702308,-0.029961421804404326,0.13536618425137237,-0.10519623850480925,-0.12051338264337579,0.06035238625608126,0.08052200434501167,-0.005557047862309321,-0.08012824901442447,-0.08939447494890392
0.12456624854106871,-0.057475597555273865,-0.18224576999369438,-0.03355112704399639,0.15340795817676184,-0.11975793325764339,-0.11466110111667459,0.08358325850848196,0.10063893163159081,-0.0003611634525040851,-0.08705636275569069,-0.09317226553058042
0.1382333694278946,-0.06354464607243585,-0.20205981511736035,-0.03739536314182219,0.17016873023807877,-0.1327982652758751,-0.10768514077216866,0.10717115574343476,0.12024444293051195,0.005230006133677118,-0.0929395091235746,-0.09593075425360094
0.14886799322091235,-0.06967807528153284,-0.21883781129197438,-0.03963821638834122,0.1838961365015328,-0.14435085641786835,-0.10063723784609468,0.13024031404505884,0.1407280181389201,0.011789996568133742,-0.09729310503681594,-0.09939145173489837
0.15641773727380284,-0.0756825917090531,-0.2323381696704828,-0.04037215332322155,0.19444315858718053,-0.15419206294493984,-0.09330300539180639,0.15266738970638766,0.16112181563929825,0.01909357892665327,-0.10009023430041035,-0.10363732781437979
0.1617436493768289,-0.08097991089763426,-0.24285639698118228,-0.04030465336886236,0.202391861392621,-0.16219005721644167,-0.08553067664869118,0.17442734870095178,0.18189751295191847,0.027145677703624766,-0.10134893477667314,-0.10781706493964394
0.16579973012618474,-0.08512633575975169,-0.25093740081599736,-0.040183509576553186,0.20848924762921028,-0.1683766702835776,-0.07746730058177854,0.19485986961517468,0.20129121116886467,0.0350516783701744,-0.10160724427530778,-0.11186219793708957
0.17067636574395487,-0.08745198758617641,-0.2580708129523124,-0.04142373786697287,0.21452101832800485,-0.1731397751672056,-0.06996980343423505,0.2124742385864261,0.21791994726161903,0.041355404916271286,-0.10202774603542365,-0.11501678052294227
0.17623921341775672,-0.08784766189272972,-0.2640147760671004,-0.0440309126897724,0.220298511565855,-0.17630335752614784,-0.06272347260749858,0.2273688913497831,0.2310117972420927,0.045975742890013487,-0.10255958483705097,-0.1172996839367437
0.1814715365926149,-0.08688779832468559,-0.2683034803055444,-0.04717694913045352,0.22507595263814958,-0.17792132446910322,-0.05611135081544139,0.23923655655963874,0.24149098945593028,0.04925503003817435,-0.10301006947270186,-0.11910621774304625
0.1855597419168081,-0.08453688428268649,-0.2700850264869945,-0.050458254991807776,0.22802344490372004,-0.17756703501964877,-0.049335847076736855,0.24868547320055945,0.2490276206236115,0.05160632974990099,-0.10293413077921623,-0.1201599578387132
0.1867574445282895,-0.08112839767339708,-0.26792469059336094,-0.0527468108831864,0.22755461697304225,-0.1747255568890157,-0.04166739730313893,0.2563911417973425,0.25514534471615546,0.054189470840013736,-0.10143645652760297,-0.11989774505398522
0.1850079933120218,-0.07673316368545087,-0.26183197569637,-0.054005191118020004,0.223644417971084,-0.16943791555749202,-0.03292563234269125,0.26258070573913533,0.25922691757134525,0.05691635495556601,-0.09858068617293463,-0.11848918430752671
0.18113618521989575,-0.07138086534941342,-0.2526780796358952,-0.054634972552441416,0.21714004872493242,-0.16214922560414785,-0.023750306114181368,0.2666169607756862,0.26131107737477416,0.05929622123691613,-0.09486898332311056,-0.11584575035274115
0.17527849264518652,-0.06542291198975603,-0.24092151729793201,-0.05459929044300566,0.20832677129569588,-0.15325447929786687,-0.014387295350740162,0.26856477105240567,0.26068802359347704,0.061006207993345635,-0.0907473192346153,-0.11255792938333556
0.16800429016199733,-0.05961030836368187,-0.22783948078868604,-0.0538855173123724,0.19810481997524526,-0.14374305350361125,-0.006222475545664596,0.26748447565828387,0.25736559081343546,0.06131495775765143,-0.08723652491881817,-0.10950376647737958
0.1595517251962867,-0.053916044658175316,-0.2136470468187103,-0.052638481098310146,0.18670661205034153,-0.1337146305855667,0.0010094925709206715,0.2638700049808597,0.2510356075997498,0.060259179904113676,-0.08430945640663429,-0.10678307868990106
0.1497992626997709,-0.048422186697284104,-0.1983112710373316,-0.05069895279204599,0.1740638026658441,-0.12320759766770116,0.007363996225057463,0.2577980414346927,0.24267290059699306,0.05825107277312406,-0.08169681622452217,-0.10413977122207659
0.13911597635675554,-0.04287388751469475,-0.18197949214873682,-0.04834263902396067,0.16045920009395048,-0.11219314859908147,0.013441801644989999,0.25030446803097106,0.23245779418288373,0.05559436618578083,-0.07894413692435492,-0.10131674919522639
0.12795589175283317,-0.036896656420116,-0.16479868329259215,-0.04585161205645286,0.1462361699563419,-0.10060328635487155,0.019748275516999186,0.24221427647865326,0.2219008598159842,0.05288810352143115,-0.07521624968018263,-0.09742361674097028
0.11663498004127869,-0.03043140134390107,-0.1470236719960949,-0.043432388026298986,0.13168179281447195,-0.08853207446933344,0.026470015635221264,0.23395773620692326,0.21076155631404175,0.05021049325395991,-0.07052812008874465,-0.09265314577653688
0.10538545922600695,-0.023789664204347076,-0.1291725896291698,-0.041069297442073244,0.11715532120119168,-0.07637634099069004,0.03282198615973114,0.22488774216363913,0.19934388125635857,0.047346316477581286,-0.06530468002943063,-0.08728625106051065
0.09501666504200439,-0.016939911718662222,-0.1120143205660382,-0.039225406070367265,0.1034412854263558,-0.06447763544841745,0.038836916546642654,0.214924063041908,0.18715387798568084,0.04422094713738063,-0.05998069374178288,-0.081957703529088
0.08659183119807853,-0.010156803579898531,-0.09685504568122132,-0.03833960399652227,0.09170381231108414,-0.053573024900858426,0.04368267158680271,0.20257217121771012,0.17412075118044393,0.0404922486403267,-0.05556063764752356,-0.07762751891847057
0.08010096222278094,-0.003410591728027051,-0.0836507577436703,-0.038445828078028405,0.08191184047864511,-0.04362211801777647,0.04753528781638288,0.18841800035035092,0.16005653868995226,0.036281287637311685,-0.05196676858449136,-0.07434208980558606
0.07539222159726047,0.0031428435910152985,-0.07243073357898017,-0.03933679395159975,0.0740135823344024,-0.03473782559609208,0.050381997710587594,0.17281894421156588,0.14591681020056416,0.03184735923317264,-0.048896772832133124,-0.07169504772084241
0.0714505687328486,0.009741425994966753,-0.06190305376776199,-0.04066003721342777,0.06683363223730787,-0.026152695923187565,0.05220443901829933,0.15646008540662232,0.13145317985857793,0.02742426583244482,-0.04577951438353686,-0.06907992987136337
0.06636415395644615,0.016655803367826412,-0.04982986031962284,-0.04158898901118555,0.05826451818452554,-0.0166229200600711,0.05233000289574234,0.13946478422272648,0.11717271230088956,0.023262733928103848,-0.04164381604203433,-0.06510304536865108
0.0601009107022705,0.023602910391854783,-0.036474996855805936,-0.04198106458307424,0.048425056494140105,-0.006425764852099837,0.05122391332225656,0.12275504600162691,0.10310993753399468,0.019582146652349176,-0.036429650719332206,-0.0598732859290728
0.05307154370245411,0.029795995708082577,-0.02304125047089683,-0.04163690175527628,0.03812463961491919,0.003454200496707593,0.04885961626793818,0.10614264530103958,0.08995824250380355,0.0165055488959327,-0.030361745504650997,-0.05359602114056593
0.04600519759147357,0.034900571364358486,-0.010683528983732217,-0.04074325809385802,0.02833221466607497,0.01224692525752292,0.04597956478848408,0.0907735679281729,0.07774994052767871,0.013923848310617935,-0.02421330211719055,-0.047371709613328414
0.04057939796996073,0.03807065893312518,-0.002087885727557553,-0.03964145320049712,0.021280720307580277,0.01814523168914322,0.04314749119883146,0.07710879495129445,0.06729113103950099,0.011428225973755276,-0.019555465938835163,-0.043052201686004966
0.03660380704919506,0.03904617267542746,0.0026887859957714227,-0.0381270682686106,0.01690356942925702,0.0209935386664597,0.04087860604935406,0.06597062626785312,0.05858421213795809,0.009308161995374917,-0.016136620119743754,-0.04050040509651863
0.0334051775617252,0.038410687482583424,0.004951034151454254,-0.036148755172050906,0.01419564291157276,0.02174425049468626,0.03864494610944054,0.056632442528541944,0.05160659584859253,0.007421209678758453,-0.013747704815323138,-0.03916674821255307
0.02981148768206343,0.03390472213765741,0.0037157836690001208,-0.03202673794784225,0.01304989312811819,0.018796894141124783,0.03764714228993764,0.050961076574951254,0.04769562526257164,0.00741810605485047,-0.01023592215558858,-0.0370603893287265
0.023591369725660297,0.0218571298463273,-0.002248834366363114,-0.02283181068492687,0.01293127980937843,0.009744309654600011,0.038827947560635026,0.05034177718617747,0.04953541049161333,0.011816316882843687,-0.001903894243949128,-0.030317580207989792
0.014958142610896964,0.00348307003637954,-0.011942901610716173,-0.009298416435141838,0.013447712235771724,-0.004303680710088747,0.04218383209179215,0.054632243613923756,0.05615406528537035,0.0201422584334955,0.010703505640421903,-0.01950522439962089
0.004811542587493629,-0.020061714985104236,-0.02518129250324516,0.00758119950879522,0.014972265042037317,-0.022693287518952342,0.047156869080347,0.06264730130760571,0.0668885774030262,0.03137698219394411,0.026239917921845633,-0.005934655997069611
-0.005257526553213385,-0.042764215642006005,-0.03760695611736286,0.02398767450693938,0.016127239228818917,-0.040234165988218176,0.05214326358683759,0.07129113846163673,0.077694537505365,0.04245990206581146,0.04103822660043138,0.007195163584401849
-0.012205105950060071,-0.054383424179044876,-0.04217824540588839,0.033310713321447846,0.014927595286602901,-0.04828824664551531,0.05349837754451265,0.07377289856148603,0.08208741908951991,0.04761078594844334,0.04820468096559174,0.014053476466025889
-0.01601711349626847,-0.05492668368563197,-0.03891594198504398,0.03552610190675994,0.011391852175347512,-0.04687297302317623,0.05153990779626693,0.07062124153342081,0.07984611000142813,0.04698769204880946,0.04799854454838375,0.014671386972310614
-0.01768693280607645,-0.04729815596783059,-0.029663775030525034,0.032590917203510116,0.005935964568657119,-0.03835774808190212,0.0469886617805284,0.06286985839441786,0.07298645503208985,0.04218305708649376,0.04265223346762579,0.011203657527931425
-0.018274354102808973,-0.035660863763909326,-0.017492216111842967,0.027092939606020463,-0.00043801802611709116,-0.02637718887212026,0.04116830065167774,0.053443956580553155,0.06366918566437164,0.035415569745952356,0.03513193512367646,0.005598672532108549
-0.02021659591447278,-0.029642864796619144,-0.009505917527066716,0.025076183866834415,-0.0054055808430820895,-0.0193277673140032,0.036366492663006025,0.04724243976994787,0.057583396156906864,0.031399851901752644,0.031781669392860354,0.0026313057117011113
-0.02350746720222072,-0.029308998686616777,-0.005780319322071107,0.026550897732938953,-0.0089243910633951,-0.017281264976369223,0.033012572874927856,0.04488862581922825,0.054717135746951744,0.03039202269198369,0.032796869698069275,0.0024482825176748713
-0.027184168249748526,-0.031165109956187594,-0.003837099866149371,0.029313609057196946,-0.011748575610777998,-0.017247732923126962,0.02974478374515828,0.043553277450059436,0.05296096252022408,0.03033843455238366,0.03563412497550762,0.003185290075130173
-0.030571402070325493,-0.034056154712272434,-0.003223908192199944,0.03243545081450398,-0.013755922976817488,-0.018420697432758294,0.027300717462560475,0.043472741426089395,0.05215891701127939,0.031151586208851497,0.03972347625013943,0.004874395722281289
-0.032042673452848114,-0.03408938284423501,-0.001734333664507229,0.03318649966629378,-0.015219512628702168,-0.01773834386407783,0.02553329991947723,0.04216958169160856,0.051091320374205315,0.031205834064329127,0.04252419702147021,0.006672420294002653
-0.03174854473459066,-0.03129599120469542,0.0007486673368743482,0.031639601749071995,-0.0162743031358689,-0.01515543695580824,0.024631180279010612,0.0401900491024577,0.04960373695774091,0.03062250264273371,0.043985073752960444,0.008432361494774788
-0.030540955280557086,-0.028432895371648618,0.0023536430207557906,0.029615164374652538,-0.016417221539732206,-0.0129896519571043,0.024768549368642093,0.03824893639614926,0.04906122325939647,0.030425373191868343,0.04574513556963096,0.011324442678448529
-0.029404690762881425,-0.025760744079565717,0.003809392428243041,0.027717015443529808,-0.01652010793087991,-0.011001064550378576,0.02525878098885688,0.03659732975383536,0.04882352367369783,0.030536105990663087,0.04733582711486256,0.01446947710020249
-0.03022421576161754,-0.02451800098526378,0.005780696558537428,0.027524321540331756,-0.01788728966861858,-0.009470880906489513,0.024108500455910516,0.034176441285581165,0.048121269992825545,0.030552406425764095,0.04825340635527937,0.01666310090590455
-0.03292540352565417,-0.024629266199139157,0.008277447969831701,0.028941915018663434,-0.020485558237826006,-0.008351602877577963,0.021680408268335716,0.03168279140994064,0.046924004011935284,0.030659001623107772,0.0486435654092891,0.01792014515241379
-0.03671671959540132,-0.025008588605455538,0.011581635862388778,0.031050315948403493,-0.0240527497725641,-0.00695719121514671,0.018017943077449233,0.02812218248193443,0.04510240216670145,0.030479725004997547,0.048122068050095355,0.018340213182866973
-0.040651520536781435,-0.025039446699498306,0.015393116049036553,0.033047408687300966,-0.027949856030135774,-0.005113976893594755,0.01416296394679542,0.024222149404289895,0.042664871597442595,0.029846987433503048,0.04702300121404342,0.018410497288651687
-0.04277423436406021,-0.023869244855729724,0.01865339956994623,0.03354651716527823,-0.030639185351187086,-0.002904271159478056,0.011530203049346953,0.019547322179921018,0.03998240956491336,0.028168018172956333,0.046018726110614486,0.019516689037866075
-0.04305530930852122,-0.021289277530650217,0.02153905852723392,0.032406996806108944,-0.03219554796587734,-0.00013758439632417777,0.010341947004687154,0.014852502824647939,0.03706476716783462,0.025774137857273068,0.04525087687873401,0.02154296977370928
-0.04232016701546248,-0.017876221264360084,0.024290242881857625,0.03034987168935188,-0.03316411777108979,0.0030128224809385985,0.009692315389478139,0.009424353258562527,0.03375961297024523,0.02258174720977939,0.04458638827238465,0.02413608962628343
-0.04080597200123345,-0.013662075412841054,0.027087264244402682,0.02747824876249804,-0.03376937473377678,0.006595440767868888,0.009333963073575705,0.004308464936287419,0.03037395969037889,0.01991127396500598,0.044566844945579345,0.026927673723484983
-0.039350014062643414,-0.009094734453153888,0.030265207024608057,0.0244351548245191,-0.0346315799279214,0.010506072966921238,0.007741180270820542,-0.0008493177677404295,0.02720276770145456,0.019420623933905912,0.04573321162761271,0.029211386446561162
-0.0380863070561491,-0.004236075066433228,0.03389379628275256,0.02130323347479078,-0.035850075444818094,0.014749647085571572,0.005244331698192234,-0.00519988428561876,0.024362622047658232,0.021229675181903624,0.048100059830723754,0.030947475759000028
-0.03650735165138125,0.0009716458206830491,0.037544058111212246,0.0178261760912455,-0.0369431318837559,0.01915414459996516,0.0021065007064388058,-0.009543400022536784,0.021768292793022028,0.024557872579320583,0.051471649471853884,0.03249914156098992
-0.035192625943404304,0.0062765354983689275,0.04153030881543573,0.014421959426622472,-0.03834110224716696,0.023767505844580414,-0.0008557036330508065,-0.013019622180802813,0.0195420364167705,0.028570937384589542,0.055546931207386165,0.034297330063448726
-0.034910215366863596,0.011144061637732792,0.04607846070893652,0.011800655823182706,-0.04050900987707061,0.02847418524512016,-0.00282064406770711,-0.016461693131690918,0.01748176542885902,0.030813941709795813,0.05952977775848537,0.037366098352229454
-0.03558826879503825,0.015563871431450473,0.05111293632103786,0.009912986890565625,-0.043371433446463,0.03323110251056276,-0.003549389737120868,-0.019085761049727482,0.015700416363775595,0.03151801906742644,0.06331707827698119,0.04148771130490281
-0.03723208480323006,0.019467899677047908,0.056562692937512184,0.00880132334097159,-0.046906862611033696,0.03794923252019533,-0.0038063751395146788,-0.02168821718331965,0.01410467912980341,0.031207166235613766,0.0671059408004724,0.04637109602567985
-0.03912458521052529,0.02274503158864367,0.06164840249648713,0.008139274983568472,-0.05037673696050832,0.0421837018608041,-0.003876159702057055,-0.02370862549169007,0.01266291762237875,0.030525174062059474,0.0702785820678977,0.05087673830151056
-0.03985829295705228,0.025173238233357743,0.06482285446147681,0.00733616245729326,-0.05232771834850734,0.04504109155409039,-0.005221465100566086,-0.026483933694671103,0.010877056580595767,0.030326554381626104,0.07192892027119195,0.05314335630243704
-0.03946894121216474,0.02696139955072187,0.06632339576767703,0.006282281663479402,-0.052895175706394536,0.04674097493450051,-0.007488101802185278,-0.029135645191618955,0.008970911430053873,0.03095652110006923,0.07226042805194857,0.053249524985236
-0.03834812709918599,0.02812801826047189,0.06653659883415826,0.0051937962968980405,-0.0524627510472444,0.04749350766574495,-0.010386050146297983,-0.03239712241347747,0.006878387415991726,0.031565489851893606,0.07136946500607343,0.051966420381408016
-0.03694420032904586,0.02942861847957335,0.06661546730053423,0.0038756310327969167,-0.051810692394008255,0.048235518819885505,-0.013241318012547455,-0.0353536970526261,0.004825578468207832,0.032524940177104396,0.07047539699923171,0.050392507528397044
-0.03634225612058784,0.031861142265924486,0.06853888982757288,0.002358354075628097,-0.05243529246656672,0.0504272786216612,-0.015531884035334752,-0.0387998398424043,0.002605229204096929,0.03338101270362524,0.0716402263407774,0.05091248392774795
-0.03650034001738355,0.035646346293351686,0.07248434783758033,0.0004952080614768486,-0.05441051034088858,0.05427091774557751,-0.01676808134642394,-0.04167301810872833,0.0006577491070602491,0.03455924659545072,0.0749456646527632,0.05354541268432442
-0.03691840184947954,0.04072350218009112,0.07792821434099373,-0.0019092680237274542,-0.057235476426598944,0.05948039143850516,-0.017343825970082754,-0.04495372578148326,-0.0012231172850787895,0.03615460037017483,0.07988036766812617,0.05764941885627389
-0.03733433535936793,0.0467167789520277,0.08424412561568982,-0.004787037950451983,-0.060517015757761305,0.0655719965174758,-0.017038832411793017,-0.047214656160711965,-0.002239493928126952,0.038537014659461445,0.08572913792101071,0.06263676162942951
-0.0371106307447931,0.05252544677557025,0.08973745073345633,-0.007828889011788177,-0.06318025209538602,0.07118320965988639,-0.016353351063527984,-0.04873153452309802,-0.001965670987171264,0.04137360846831511,0.09067379716683022,0.0671835449698768
-0.03620294676608667,0.058377160497581584,0.09459748798081831,-0.011191220570253787,-0.0652882904908715,0.07652447329250785,-0.01502170663903525,-0.04856457055338274,-4.293053299642224e-05,0.04510534363306412,0.09481043174925276,0.07123885233936574
-0.03485064735337449,0.0643394521616128,0.09910715782555432,-0.014788232220985348,-0.06707538489351375,0.08175827580669515,-0.014026972847360625,-0.04816259257743371,0.0027910221928411603,0.049081831597760486,0.09863235106196168,0.07538783645231986
-0.03324497923582434,0.0718656939166622,0.10493419662342833,-0.01928522694579051,-0.06939612142374213,0.08844903045198477,-0.01107427038004042,-0.046475337017341176,0.007023700722010695,0.05437633451214995,0.10306351050730173,0.08019424446462572
-0.03181965867143954,0.08334774165542279,0.11493265255397635,-0.025680835976627243,-0.07375378825996073,0.0992158608247426,-0.0031905068653307884,-0.04474636084048358,0.012193660862384615,0.06173090386121703,0.10988627860555315,0.0870322244903475
-0.03049712190249837,0.09826574845669278,0.12850501736445763,-0.03377605710086522,-0.07981459218384619,0.11349758737112295,0.008621157796642138,-0.04229398158920157,0.018341261683741058,0.0710806816469998,0.11877228781551936,0.09549843764790295
-0.029090142959158884,0.1154827873671046,0.1443288226776793,-0.04306128645544841,-0.08686954527855263,0.13007067665839406,0.022958461085201082,-0.04033547771004562,0.02471655923345345,0.08142370273142464,0.12871724182006875,0.10491235713305448
-0.027018480403518275,0.13207066322231506,0.15888290268448813,-0.052386440343139426,-0.09293205047684454,0.1456906956149339,0.033229703421913906,-0.03924866947603296,0.03058234896026418,0.09123726414673385,0.13799348722176424,0.11357527434649653
-0.02328991513685973,0.14259403880763027,0.1657082643819747,-0.05951028599864734,-0.0944154447867326,0.1543774990154918,0.027302606223743687,-0.042572678951007956,0.033453769183800476,0.09668220925059101,0.14334712966113017,0.11869284811817309
-0.018024603246649538,0.14715208772395946,0.1650221988529073,-0.06444102242364601,-0.09148516565690536,0.1562918536740708,0.0063872053518970314,-0.049013079410057114,0.03372886635501141,0.09816632359590684,0.1448223431912309,0.12024333210415379
-0.01151465343633629,0.14735423076152956,0.15873495831419163,-0.06782151607695522,-0.08518981362021764,0.15320060739633384,-0.025875227623856103,-0.059073591742862815,0.03130651964070306,0.09618348663745448,0.14347803774194015,0.11925873360454377
-0.00485997735082508,0.14509941711770796,0.14983508474348506,-0.07007317150348545,-0.07752736199930745,0.14756601920336893,-0.06207512002919212,-0.07037840344188372,0.02677278099096251,0.09214073463164213,0.14041999617249273,0.1168348759479345
6.530118547448183e-06,0.14467872627501888,0.14453751762630498,-0.07235865189476146,-0.07246719668138586,0.1446797220528376,-0.08822608946523673,-0.08179578532065127,0.019945512464543843,0.08786083129387183,0.13810751972813307,0.11563744956529821
0.003054489999485304,0.14627555377296905,0.14305740192945013,-0.07476771471205661,-0.0701348517405326,0.14474092829493845,-0.10321766440789022,-0.09159048574848973,0.01192959483176674,0.0841448168259922,0.1367550873077749,0.11572787776929472
0.004431326169250989,0.1476872760546873,0.14304417185906437,-0.07625081173825651,-0.06933100916908935,0.14545597853647596,-0.11174940176408185,-0.10157133548835791,0.0019063570777203193,0.07959702264730315,0.135252687079084,0.11604832304859442
0.005762728046149771,0.14971838202003043,0.14368685487436633,-0.0780098658444614,-0.06887256796745946,0.14682232076448348,-0.11466674276177244,-0.10966906181783204,-0.0076554461310981425,0.0754625655274995,0.13405589683969818,0.1168970810834209
0.0102044509992514,0.15252377891272534,0.14200476454768632,-0.08163005380138295,-0.06577112831593193,0.147417849026552,-0.11782616817302094,-0.11685574984631789,-0.014969751217832679,0.07168238045746056,0.1332062245918999,0.11831871558659862
0.017117739262817427,0.1555831891590517,0.13811924446727372,-0.08655452588707452,-0.06040578675390402,0.14703891174312975,-0.12081993072422946,-0.12145880897391809,-0.019078020820260586,0.06892223350497922,0.13261062839935142,0.1199875458832695
0.025247678484749122,0.15927970640940173,0.13366101341015327,-0.0923408257060859,-0.054182376986468626,0.14670120253044147,-0.12038737793201043,-0.12458900457324787,-0.02137396815592274,0.06673399135907584,0.13255333330518834,0.12229313203696715
0.03128775132841665,0.16083598470342364,0.12917580594457093,-0.09600701006669168,-0.0490024206627455,0.1452625843989592,-0.11660635494094826,-0.12464979354209398,-0.021523861913578066,0.06570487688736205,0.13224649194607752,0.12381509324726621
0.029201778159194815,0.1553554452441014,0.1258228634070767,-0.09214630336956624,-0.04840907286425568,0.14081207419812888,-0.10959218016911208,-0.12337131704839203,-0.022307474380154662,0.0646988914665777,0.13013796199287872,0.12232364965089386
0.019330867623712344,0.1431598436995316,0.12357855110174988,-0.08110908527081132,-0.05221822395858444,0.13350499597278365,-0.09942218746941296,-0.1193708797697196,-0.022859548773248087,0.06423653463854241,0.126282017657941,0.11783086038616834
0.004013757582517823,0.12573899373000993,0.12159509529662528,-0.064768903490854,-0.05886368583276029,0.12367398529332899,-0.08822664587345565,-0.11451367435008125,-0.02347386381585807,0.0638246221128681,0.12113050038359625,0.1110753867693403
-0.014054684589290128,0.10463341638296372,0.11867434331194582,-0.04523262987200888,-0.066408957152129,0.11152425615584265,-0.0768591013492469,-0.10820235414363867,-0.024192246863619024,0.06253911183191924,0.114522700326536,0.10249585243230971
-0.029131692181438622,0.08338064975044944,0.11253544709980147,-0.02705351377097238,-0.07087123516150921,0.09774974181822715,-0.06718265842208712,-0.10389113948621223,-0.02774174709281706,0.05697037903619848,0.10649531735201201,0.0935842585583226
-0.04062081690486071,0.06290001418520473,0.10350667079037275,-0.011012932759122521,-0.07211611129744455,0.08297618015705199,-0.05933100132145034,-0.09996500578007715,-0.03263650624587651,0.048360121725773544,0.09746081401556662,0.08464393486163838
-0.05034668665340866,0.04223048691418635,0.09246563127831753,0.004272988152220239,-0.07147767460583945,0.067138159373887,-0.053486032033542165,-0.0982604547037656,-0.04033611200866799,0.03638529036328676,0.0872937475834043,0.07527550396319978
-0.05772844441922953,0.023847651368138396,0.08137119615143723,0.01722381226543638,-0.06964076980036828,0.052451838749318,-0.04904443649695158,-0.09632913290456524,-0.04729740703184022,0.025004130844587844,0.07786891947149452,0.06681163480177121
-0.06331436953580248,0.010497314262713508,0.07364121185975193,0.026692142244041317,-0.06857799960682334,0.04197960460584838,-0.04550851953053017,-0.09486301542914852,-0.051146296862725225,0.018764922028665722,0.07200891291078167,0.0611404601370511
-0.06703501986938917,0.002450420017625652,0.06946448446298327,0.03249290549658391,-0.06834781213052402,0.03594515601850727,-0.04250444421568434,-0.09193148975684237,-0.05054915866307756,0.018521695694441377,0.06971800509009382,0.058195945376371704
-0.0676653810843247,-1.8497117325440134e-05,0.0678422185343082,0.03392346564716568,-0.06784844115668645,0.03399987436947886,-0.04104064801914965,-0.090668314122596,-0.04870373085151144,0.021496565951429784,0.0704999186577178,0.058045404869698045
-0.06625879973231397,0.0010205750254509744,0.06768571349249362,0.03256608287736173,-0.06705921055400793,0.0345288565182806,-0.03996835547846067,-0.08857771233052351,-0.04512251077211192,0.026421261256599216,0.07248673217558517,0.05901105591401508
-0.06433887163809296,0.001244131012879558,0.06605263024525382,0.03144110539784242,-0.06526825643333008,0.033844554777406256,-0.039160056604968366,-0.08826763432377478,-0.04457597016302885,0.027102496013045162,0.07192790956800862,0.05821032081432624
-0.06243654359580669,0.000449936685256688,0.06326986446296515,0.030895761514216035,-0.06290657325233744,0.03201370244375746,-0.03757871352435987,-0.08702040592995526,-0.04552820441247477,0.02448398436868114,0.068746095519427,0.055365792439957276
-0.06235177737293301,-0.0016017890990918356,0.06094076811648514,0.0319426750004469,-0.061677034607999004,0.029727261295758083,-0.03285804637247942,-0.0859246950431388,-0.05064245030690836,0.017526953374150556,0.06302359366304208,0.049979187244060204
-0.06152563749971984,-0.0021980796238581057,0.05926967795487187,0.03189211731540399,-0.060408737327288874,0.0284816093721759,-0.02913436110296225,-0.08443340024074536,-0.05496315533282324,0.01154512329757224,0.0578838893473658,0.045254601544138684
-0.05550831159203781,0.004159485753231699,0.05948666003777114,0.025721412802622558,-0.05749304728469036,0.031723275065546556,-0.03591934633048253,-0.09073510607803387,-0.05588172025986987,0.012700884109110447,0.059157422930478494,0.04786410247839055
-0.04582538247151191,0.015507471554090815,0.06107548034328766,0.015151765141972359,-0.053447988814070674,0.038204658408392045,-0.048247835165476656,-0.09785752131095472,-0.0516168891337178,0.021003005753468515,0.06560800300319523,0.05549280642683276
-0.031518553874310844,0.02898903964603889,0.05982430811371615,0.0011454236007898278,-0.045746316422575685,0.044330955179106714,-0.0589142624145053,-0.10061966106826707,-0.04718030218717962,0.03141703281865367,0.07560682876862014,0.06387716548102398
-0.026203712925948093,0.036040340257392965,0.061264257512126254,-0.005137718365525344,-0.04387170451205379,0.04862579528847291,-0.059370857080910486,-0.0960006816178096,-0.043307621863867815,0.038244621515535225,0.08063973598255092,0.06711695003924427
-0.05285796472949411,0.02135436348854055,0.07413413675138684,0.015640754134542686,-0.0634840613398972,0.04785840961459346,-0.03842844922082108,-0.08954006338852945,-0.04756183467243979,0.027668271456585024,0.06591705839068812,0.05627348495999586
-0.10650778808486919,-0.013638958146587872,0.09423544467214168,0.06020538415624971,-0.10010481631964328,0.04060357275538868,0.008630718572247963,-0.06998627636608944,-0.05644086042247999,0.0021299260472019722,0.03313967088372798,0.029464557067051922
-0.1794487665545592,-0.06180829013065879,0.11932287589494132,0.1210312124356937,-0.14903422054730447,0.02928008388339225,0.08259521358698071,-0.04230661760804771,-0.08540269926451798,-0.044182006477234324,-0.013786805026349953,-0.014809058914032145
-0.24312542309616975,-0.11754772977964319,0.12694397395121093,0.1809057424445459,-0.18471813708750937,0.005312415493302373,0.17531755119171946,0.025487230431321572,-0.08792129204285508,-0.07902010854468773,-0.059647673252233566,-0.0651257574954141
-0.24404726444431576,-0.16798875917813735,0.07916979843345612,0.20658419416159896,-0.16106712414395086,-0.04399620635711864,0.26514276473605813,0.1720703815252608,0.003093707001955545,-0.05248568227870546,-0.07476262707381749,-0.09776316033802986
-0.1862507876970661,-0.21043131193654727,-0.02042727758009193,0.19855239832397054,-0.08238494990234418,-0.11558086301717649,0.3461985751358346,0.38935195536503453,0.19018768460341184,0.03736245489252283,-0.061595643560540154,-0.11323576586845557
-0.09717660067494843,-0.2520807775165134,-0.16099244059009818,0.17365129772368984,0.030688338217881674,-0.20792458869885558,0.4191915112247433,0.6224638011885084,0.41995141141689907,0.1563403560894233,-0.03774107343994405,-0.12228589227247386
0.018362350100800333,-0.2775304064193925,-0.31252628954878237,0.12746583778538284,0.1623976414662104,-0.2974747936771963,0.4578417474244255,0.8615263342341396,0.7094172803875535,0.31411845445294195,-0.0015240878991122904,-0.11717492699244508
0.14412695683147453,-0.2656807278010498,-0.415067636379061,0.059264795627946724,0.2783586467643973,-0.3424261915982491,0.4264529890969733,1.0934279717692446,1.070634685307525,0.5112800716879015,0.04644388853429917,-0.09096646349594384
0.2644011891157153,-0.221400100564774,-0.47086498123882414,-0.021186598544454184,0.3697997692562758,-0.3463518344582837,0.323207666053139,1.2207279181164248,1.3921098166875852,0.6898316024410637,0.09122075627658663,-0.04841551554136217
0.3787485847358021,-0.14712298083945402,-0.5097138258325314,-0.11279341241439834,0.4472443540178578,-0.32411832338167296,0.14785182787811404,1.1015589415403864,1.4990777065224021,0.7685788628115069,0.12432070751056697,0.012022371824851628
0.45650678321737304,-0.07900030214386679,-0.5300223155766143,-0.1840486803064398,0.4951474299454791,-0.29666495070822024,-0.06378769398285002,0.7244177674507459,1.3094180549358805,0.6809198912633418,0.11719820969900209,0.06239814296927467
0.44251940991585903,-0.08120297309788807,-0.5285418092999092,-0.1803384760879078,0.48488326924012803,-0.3038304231541873,-0.1968563324528509,0.2065969840390641,0.7239334365445962,0.33350571334603357,0.021007599704138718,0.055583048938009284
0.37039123898884474,-0.14932411702351273,-0.5325507557439247,-0.11650395772234481,0.44816402337770345,-0.3500994379483458,-0.2527300690707553,-0.3104592634501636,-0.1835611504643328,-0.22664427766775305,-0.1371766045412568,-0.00482678570811385
0.3194778511966972,-0.26421153689227517,-0.5919829964860022,-0.03174625181454252,0.45351956176485286,-0.43458913933968035,-0.2596706990997321,-0.46132380764738756,-0.5936595542710195,-0.5288430740740425,-0.2992243913780881,-0.10532465437496748
0.2755479344406162,-0.3887730424039289,-0.6607047439975715,0.058432211143302756,0.4690419059928918,-0.5221513106892649,-0.21036104669436104,-0.4491962962178092,-0.6732887978756149,-0.6488600881802357,-0.4394826341879893,-0.2170433064324669
0.2005511312968571,-0.44712990867362606,-0.6419158703989475,0.12616329253450653,0.42266887741264036,-0.5404092655923135,-0.11855629999458675,-0.41326895219775656,-0.7809859494967765,-0.7493686646868483,-0.523614037628096,-0.2810953097915863
0.11500279221469259,-0.43928860882983434,-0.5524425959318117,0.16340969323181387,0.3341475508308509,-0.4942378181079548,0.006326315770329044,-0.3533564457514731,-0.8156964326283589,-0.7718353785731461,-0.5391861599118969,-0.29642409534862
0.04252980094867653,-0.39301423821398884,-0.43510583009253023,0.1757430064735933,0.23877767946232692,-0.41362458547677816,0.16130212943926306,-0.20736119827148028,-0.7162796131887013,-0.6870420730562129,-0.489845391944121,-0.28305352549420376
-0.029098856964754047,-0.3240038790172554,-0.29523994505172363,0.17628827629031205,0.13268299831923347,-0.31033426533909236,0.339986358753241,-0.04160200120562798,-0.584116508038472,-0.5632664963389279,-0.40236793136468224,-0.24907983007681295
-0.11588095006237897,-0.27608101049438033,-0.16083430840433013,0.1954348357939181,0.022008714367503686,-0.21948489317254558,0.5491252477644911,0.09567144286727458,-0.46522100711867787,-0.46265413160278723,-0.3326249869165695,-0.22205790016163293
-0.2111076967722191,-0.2508369829375059,-0.039583182076335884,0.23077620700414173,-0.08592134999191943,-0.14548184810676965,0.7539975077927857,0.18554395841204027,-0.4048584260089349,-0.3919416416370616,-0.2824411927702718,-0.20337477478824834
-0.3080347039994338,-0.2256030270416217,0.08267761234809674,0.2666242061855568,-0.19533170641048095,-0.07148167808461107,0.8880026016839859,0.197778758272132,-0.3758990043163537,-0.3402256332497989,-0.2326052844200797,-0.17710263188728576
-0.3951444482266812,-0.20480746479371695,0.19016883287732925,0.2995598253467584,-0.2925640151735986,-0.007418661322182349,0.9681893511217669,0.1513032402763963,-0.37985046365463637,-0.31015622357480116,-0.19070615075650268,-0.15021328199036513
-0.4499651265559438,-0.18679611200225646,0.26287699407528364,0.31790975046768,-0.35626638880217304,0.03799731274250123,1.0448441986572121,0.11103860104496774,-0.36897416830443536,-0.28126897655878424,-0.1550291040832759,-0.1285544806321332
-0.47182547472893566,-0.17017929000807264,0.3012832815189481,0.3204983041802959,-0.3864088833490249,0.06550130750227164,1.095891378436857,0.07505281005041292,-0.35286835201054495,-0.2565582368471145,-0.12614254333168132,-0.1116998522462887
-0.46964631142952445,-0.16458219846353422,0.30463783775056824,0.31663373521351135,-0.38704702790929024,0.06995839964340043,1.1047736773749275,0.03582187661450204,-0.3642148111352309,-0.2508766825847717,-0.11580852738028605,-0.10466743586877673
-0.4430029854722336,-0.15910340142764617,0.28352056500351736,0.300651287910263,-0.3632232540071353,0.06215775523625703,1.0414540185351342,-0.002965790386720331,-0.384529415825169,-0.250972270759143,-0.11253339769247178,-0.09999543009637556
-0.39639518914519417,-0.13442743905930882,0.2616839452400006,0.2650759225201558,-0.32904460653994994,0.06356374967054763,0.8250426068943225,-0.05007881990489926,-0.37944108776094165,-0.2336649538028826,-0.09517776985653043,-0.08216514905068004
-0.33429148791281194,-0.09277618571615254,0.24137339289194068,0.21323901712348792,-0.287861270874371,0.0742027837215808,0.5264208052123909,-0.1010664184619055,-0.35550639907345716,-0.20131307979960672,-0.06522129739384834,-0.05283111168361162
-0.25559519620154925,-0.038444592874011536,0.217233088819137,0.1467814436113382,-0.236461289546119,0.08925710564968713,0.29870351205790174,-0.13576186651901562,-0.3114053537876009,-0.1534729460006125,-0.02697026939605258,-0.016534544952189967
-0.1761163261848626,0.018613878276914755,0.19503914763333505,0.07855917841035881,-0.18562980836511062,0.10665729101906955,0.13700665778034818,-0.1594935792565108,-0.2596407134380784,-0.10071558652288566,0.014546800763505372,0.021162716495338223
-0.11984255700138292,0.056810058602989696,0.17707004291752,0.03138999361028543,-0.14849201940898998,0.11679644037120507,0.00260815046429434,-0.1789444211880277,-0.22336252947802293,-0.06429085285199494,0.044959860130521306,0.04746098319883589
-0.08821606447571609,0.07597205148067208,0.16460015775377312,0.006058671969590227,-0.1264074497349865,0.12022140013867415,-0.08134811374473536,-0.19348693370602105,-0.2046136359804273,-0.04476577760127643,0.06427540213303891,0.06212053069609437
-0.07842561780740365,0.08363123962553563,0.1623712583420139,-0.0026035737028035385,-0.12033865809929103,0.12305378924939296,-0.10898106345438084,-0.20102321021031547,-0.19143687019664565,-0.03261608859986976,0.07911804861958614,0.07047704163343045
-0.08292316106095676,0.0819077094917602,0.16500654549710442,0.0005494055654171765,-0.12383556607174674,0.12362975411875796,-0.10655376660734067,-0.20519484487281944,-0.1858220512020386,-0.0282429407960249,0.08760760308276384,0.073242095614881
-0.08217672344536307,0.07927865323879708,0.16156731895706564,0.001530458204646076,-0.12168771638280583,0.12064875125378795,-0.10550709871195627,-0.20600388181782725,-0.1789960245901162,-0.024388192664602685,0.08965434167252867,0.0746096802651719
-0.07598398217057857,0.07668733394697247,0.1527930517385793,-0.0002547916164844537,-0.11416523320767695,0.11495313455800825,-0.11124645026171687,-0.2057091643070322,-0.1728234856130491,-0.021432962040785878,0.08633242646079653,0.0751533838017187
-0.07173136929885435,0.0692314321128737,0.14112525750309718,0.001361960996740269,-0.10617828066893878,0.10533489698220976,-0.12395787747879601,-0.20469363785458858,-0.17065421145657964,-0.02321577291914472,0.07558821295087151,0.07214057914218217
-0.06842414482740575,0.060356739431079505,0.12899349935037197,0.004130000774895152,-0.09844688569848326,0.09475539546362417,-0.14062837555055469,-0.204422138275733,-0.1725113358997598,-0.027676428834204354,0.06282077193738507,0.06787878908987527
-0.06912574126391419,0.05384762972157162,0.12318345035835947,0.0076886721240183005,-0.09589387731853666,0.08855400305817475,-0.14460029300672558,-0.20362213822408612,-0.17391976694831726,-0.030034188750381812,0.05708801328196672,0.06553556380569685
-0.07308766084990584,0.05002885988551422,0.12327376189370344,0.01148918712565918,-0.09793349946007784,0.086683167124184,-0.13965945965114274,-0.20374105715156374,-0.17667948629389224,-0.031139002690688783,0.058306993922304755,0.0650945534052924
-0.07535577872200631,0.050190715599027685,0.12563488573733053,0.01243443860885803,-0.10027744647504964,0.08795135050604731,-0.1390732306270805,-0.20461094120832424,-0.1776621520674079,-0.029310641364157466,0.0649200692278212,0.0670549038938909
-0.07611636390264151,0.05291055144626356,0.1290471920289249,0.01134340177526577,-0.1024022012467091,0.09102644897639069,-0.14038706823680516,-0.2063894532416426,-0.17856982064127808,-0.026918813604358518,0.07354884349325203,0.06994373276764558
-0.07607284335017828,0.054083849912328945,0.1301468627877891,0.01069641578748198,-0.10296750394807767,0.09214364332887502,-0.14166801976855295,-0.20707339939123137,-0.17871233920302396,-0.02728862724493835,0.07599130423915561,0.07034127096118288
-0.07473748488425415,0.05395440528787924,0.12869000682662493,0.010107441986490736,-0.10160517082878877,0.0913058781487574,-0.14373532000297415,-0.2074068744419224,-0.17943059232544237,-0.0307346617730335,0.07252991352070055,0.06837542975226117
-0.07258101066661711,0.05360706988761017,0.12621381390067132,0.009272283688539908,-0.09931973288917495,0.08984255420880415,-0.1445851794351046,-0.20680877564369224,-0.17843250849465883,-0.03504294964901304,0.06635484157571427,0.06532470862942562
-0.07019706539065847,0.05312801438012789,0.12337723869612374,0.008397637885977565,-0.09673306479867048,0.0881402316877641,-0.14419650993056876,-0.2060120435285656,-0.17770896765118033,-0.039900990002448226,0.058914594178524994,0.06142460803376429
-0.0681663849101128,0.053538347546266976,0.12174117227641533,0.007221264417349069,-0.09491390772388923,0.08751704894438675,-0.14420793434108364,-0.2048542068321458,-0.17611060298975123,-0.04204280941654309,0.0542912626957213,0.058039184197292495
-0.06663756823617463,0.05454616587484857,0.12116531287130863,0.00594461325583408,-0.09386534774411591,0.08775696919854419,-0.1440289563776708,-0.20376021060528166,-0.17512241088054348,-0.04219154036177849,0.052494890961987,0.05512835080285212
-0.06554414060074433,0.05502193724912547,0.1204708043678277,0.005141465726315968,-0.09296272900356109,0.08769159263447442,-0.14321672871238375,-0.2016535756332429,-0.17316892493876535,-0.040941620204797455,0.051055828891688866,0.051832177094503155
-0.06455676402846099,0.05411356336279819,0.11850343852689973,0.005062610289436088,-0.09147092072364069,0.08630975661700983,-0.1420569890414487,-0.19891983538300673,-0.17164893244151527,-0.03964456472299914,0.04954727426526994,0.048366452342940194
-0.062965620588467,0.05026862306686182,0.11305378395752205,0.00617578041236064,-0.0879429246671899,0.08171129745377566,-0.1410645941361175,-0.1947608405598551,-0.1688457609238725,-0.039360535366601584,0.04643877619339102,0.04502351280924315
-0.060768831848029524,0.04358037494293738,0.1042109782483096,0.00841600804881917,-0.08242163448296236,0.07398442034557066,-0.140062534751825,-0.1895327756646458,-0.16604309094410588,-0.04069720712042089,0.04163891488421634,0.041628664494929635
-0.05810379288093833,0.03460452030990562,0.09264465028544015,0.011574917081569054,-0.0753113129070776,0.06374953834541193,-0.13917678200381536,-0.1828142594481538,-0.16183319959142992,-0.042205919676109156,0.0362040377664999,0.03836566689165809
-0.0552989891923802,0.024547729342054875,0.07987243937980305,0.015203343239871978,-0.06752222149199841,0.052360983236558044,-0.13815345355208963,-0.174949126967937,-0.15714505276085353,-0.044014799524176196,0.030215156576253597,0.03478421423674844
-0.053034626919113814,0.015569478746641866,0.0686928339324001,0.01858978214711451,-0.060770943388411304,0.042289213543662864,-0.13681156589624796,-0.165451612169217,-0.15004443868171058,-0.044518349544813415,0.023881794505820807,0.030177151010940706
-0.05107869272519902,0.007791928389853403,0.05899255362721712,0.02153477951009795,-0.05488910224166234,0.033539812708835375,-0.13505768444149335,-0.154704687016011,-0.1417372789333011,-0.04419185339829931,0.017342411395329396,0.024486635775260217
-0.049158352589871765,0.00031601600589903003,0.04962068824907918,0.02437067813009545,-0.049172212874891645,0.025085219045561092,-0.13313775581800508,-0.14231983852450222,-0.13099014033434,-0.04302128006973268,0.010216482565504248,0.01791670966374089
-0.04592343778845504,-0.006874165347125626,0.039194761721848055,0.026397751945580066,-0.04228292964150907,0.016239463140980393,-0.13112917836995677,-0.12871138757564277,-0.11902642854503571,-0.0415746976796261,0.002611825465594139,0.010534818044170205
-0.03909907612438042,-0.014531265213687486,0.024670743771172104,0.026847087879378298,-0.03161469029837273,0.00512790299803747,-0.1295734244272439,-0.1136926595256305,-0.1047418052613022,-0.039617075274263606,-0.005403749465201482,0.0027902744751095838
-0.0288951596554015,-0.02274634445112031,0.0061740745409985,0.025850226834309598,-0.01733023748546771,-0.008232639530256382,-0.12829402475134058,-0.09764611897829496,-0.08943926006271968,-0.03767851116172655,-0.013748046196097083,-0.005338357639512172
-0.015964013039274687,-0.030890895331886707,-0.015021503531794376,0.023448053247190813,-0.00037584058083298263,-0.022896000642449267,-0.127311743170183,-0.08038679129002578,-0.07197331780118854,-0.03509581011700922,-0.022408237570949927,-0.01394450303007164
-0.0022657738669501232,-0.0401956227123458,-0.03813266258942972,0.021212038948498272,0.017913850742474233,-0.03909674655072507,-0.126090236506585,-0.062282229058108374,-0.05379576391940524,-0.032236076154663146,-0.031028392286819563,-0.02300711663135126
0.008506988117861108,-0.05268577433545217,-0.061400970208336875,0.022018541327242513,0.034884763712735446,-0.05699310100875596,-0.12404422527342747,-0.04320170073316954,-0.03416317191186395,-0.028440340273513217,-0.03923752871815115,-0.03246190726698896
0.01640848649117638,-0.06792882915520092,-0.08445599478225034,0.025611711665113553,0.05037829103169225,-0.07618071904326976,-0.12108526799459092,-0.023504586795389765,-0.014415122071286127,-0.024265117070162254,-0.04701119764536638,-0.04226472778353306
0.02247294388448416,-0.08552605212483205,-0.10795105711677191,0.03129052175131728,0.06521208779896905,-0.09677605876744447,-0.11757375693904958,-0.0030861643260608126,0.006452856857491111,-0.01933971596117915,-0.05438309857791233,-0.052180873670846
0.028400046427203847,-0.10319633659607759,-0.13138485839634806,0.03708244845733776,0.07996486496766197,-0.11737580010895306,-0.11389564348007149,0.017553166839249162,0.026898063399335766,-0.014837508056320593,-0.06196041339936397,-0.06212052399337748
0.037850025580658,-0.11691712159915926,-0.15454729959713856,0.03922402690824463,0.09630978646043868,-0.13583923222591507,-0.11122486336288129,0.03814590569749096,0.047449998616409965,-0.011528066238542972,-0.07097109158391725,-0.07187351429338366
0.05058274075453496,-0.12660974632042765,-0.17710926089735518,0.037772347650103524,0.11396138725069223,-0.1519622491431124,-0.10934805984942744,0.05848373659133903,0.06696541245988755,-0.009683744682382714,-0.08115774386596235,-0.08136834884592693
0.0650973519859989,-0.13329800521472696,-0.19854887541698038,0.033993210411042585,0.13193336556724847,-0.16600754707451074,-0.1080110083807554,0.07865239093993467,0.08641346804985973,-0.008559077796765357,-0.09208132192876428,-0.09046765024703997
0.07964629845203257,-0.13852178769831122,-0.21855917457264637,0.029469013325818985,0.14919488063507005,-0.1785944490134084,-0.10655916806017479,0.09883503572350169,0.10514243257440507,-0.00736241256151383,-0.10267572651264945,-0.09914194314009517
0.09063014521307321,-0.14598967293157275,-0.2370535426554688,0.02778762289967429,0.16390767667882944,-0.19154463652069087,-0.10408646234603312,0.11978186928372801,0.12497987641319844,-0.003475170629614676,-0.11109227269511367,-0.10729657290563802
0.09809504407827682,-0.15538056338981385,-0.2537678371157342,0.028747369285154777,0.1759663714033499,-0.2045684618532561,-0.10041236916067435,0.14119976877690024,0.1447531812396374,0.0026191058591754504,-0.11719902393197021,-0.11487567898826416
0.10338705076094966,-0.1651194814099284,-0.2685413940906033,0.03093649685425856,0.18595008823656947,-0.21679282521194662,-0.0960496974019913,0.16264064767586825,0.1648898232197502,0.010532334524015596,-0.12154493761653988,-0.12172024801061061
0.10799446591969157,-0.17374404089214995,-0.28150775145345175,0.03287756296198657,0.1946963373507468,-0.22756518263748884,-0.09106106254138516,0.18367201890220758,0.18418389397768406,0.018940041745823206,-0.12454579989819098,-0.1277353552952842
0.11515090233718729,-0.1782473984094966,-0.29311290782857646,0.031517016051043976,0.20408715805261837,-0.23562266783589647,-0.08618468232637563,0.20362024582169144,0.20303560505030746,0.02613602229328238,-0.1274856654748256,-0.1326964902401981
0.12465509667072669,-0.1785964586684778,-0.3031136437113055,0.02692329332015108,0.21389504510384438,-0.24082523229527442,-0.08125790850867874,0.2221405510570719,0.22019984217574912,0.03166674418359776,-0.13026973892252294,-0.1365939793173205
0.13493689315794985,-0.1762714472679532,-0.3113351556221584,0.020613031209166185,0.22324063155477375,-0.2438224510824017,-0.07612115988575181,0.23926981257347146,0.23666968387189663,0.03659681787300139,-0.13235709921844485,-0.1393375347135609
0.1447397400208515,-0.17194363019472506,-0.31709817012570646,0.013549765154140695,0.2311132077691151,-0.24459758614172283,-0.07049395058207578,0.25428227879595755,0.25060724760388575,0.04078290305059062,-0.13341000908390843,-0.14107164619229765
0.15136515123272648,-0.16748374439203875,-0.3193735038156539,0.00805602048055705,0.23556755602400664,-0.24354656956434165,-0.06419939877064103,0.26621424011785866,0.26158575347463653,0.04537668628815425,-0.13276475338596627,-0.1419618774764487
0.15465898302570946,-0.16302927738140433,-0.31814652213186456,0.004253027904665434,0.23652527907858092,-0.24072870968397306,-0.05713321545635354,0.2750503634329682,0.26873524731586784,0.049984681723211744,-0.13042777528542776,-0.1420185245254867
0.15578508481538506,-0.15776722427173123,-0.3138548163632818,0.001175683806696901,0.2348115861981632,-0.2359629818585286,-0.0496935192418515,0.280760456892515,0.2730705690468597,0.05435108123563584,-0.12683755755647222,-0.1411671951721889
0.1548359646651101,-0.1519745202923988,-0.30691829255874997,-0.0011435141011483477,0.23073099152023505,-0.22959659849883718,-0.04193305342153117,0.2840158096271106,0.2746636634256518,0.0579419941278949,-0.12244976066325486,-0.1391766567520167
0.15255994639103768,-0.1458213393624149,-0.29838243161421973,-0.003048081878168686,0.22527696466672034,-0.2222423400965383,-0.034362983568889824,0.28600882371499753,0.27623191400453734,0.06061415923001875,-0.11819239784946028,-0.13548176630073
0.1491368121057944,-0.13926669231547342,-0.2883903815195015,-0.004662841173608964,0.21860846019145883,-0.21395190500909456,-0.02691476411951976,0.28685292757756603,0.2769383063247094,0.062069479392542176,-0.11407641201678607,-0.13028845058600358
0.14406266728258266,-0.13285486359523932,-0.2769157700725353,-0.005427368967023396,0.2104244017492259,-0.2049824741109735,-0.019699823046073834,0.28611186438056435,0.2770540982229077,0.06281615931888242,-0.11012312466855817,-0.12389793384958679
0.13794925129625316,-0.12593012694977174,-0.2639189247928001,-0.0059531062465552325,0.20097494656822942,-0.1949865949553714,-0.01253539627543202,0.28370428047381735,0.27529552656751294,0.06302842519829154,-0.10540241884168924,-0.11684144572647884
0.13164779166503876,-0.11741992705423472,-0.24915932617765563,-0.007098046466780204,0.19048378379539016,-0.18330873271191803,-0.00541200904517403,0.2788172499640989,0.27118663477706456,0.06380500490720065,-0.09830180161667972,-0.10993438919497607
0.12530284947885442,-0.10749989748794,-0.23294967418838836,-0.008868390337253278,0.1791803730787491,-0.17019630046036874,0.0017195343438271872,0.2717502825419089,0.26407904594411186,0.06478950675942395,-0.08919070781047725,-0.1034123434610259
0.1191124778670443,-0.09654830318635484,-0.21589733073258324,-0.011187899463981285,0.16750250301584926,-0.15614164880320927,0.00852164703677272,0.26289328887989116,0.2555165150030391,0.06599059730320674,-0.0787757751885936,-0.09709636015830908
0.11298514830257007,-0.0854932314898989,-0.19879349536461827,-0.01359190710931501,0.15581748128336143,-0.14202721515115918,0.014893269107983543,0.2526932528285096,0.2450692966173908,0.06637937267624923,-0.06918219648435738,-0.09127391662444889
0.10646176369327141,-0.07622158440418192,-0.1829934122188524,-0.014952727914757293,0.1446184129511037,-0.12950981408994056,0.020282594607219775,0.2414721442593793,0.23423941483724098,0.06479316473438453,-0.06431208883801078,-0.0860273376563196
0.099657758613157,-0.06869915091611752,-0.16858624296709945,-0.015362778359217549,0.1340093320293381,-0.11861140564630263,0.02479227204107198,0.22962826516150067,0.2224747533801801,0.061076411559110894,-0.06390805262453882,-0.08142929459102233
0.09270819480270065,-0.06254463073686449,-0.15533367502244608,-0.015025755833405732,0.12391319728283044,-0.10901514093723803,0.028318802147784043,0.21689733934178426,0.21021988828270194,0.055987186571218234,-0.06668877807820107,-0.07757009145724797
0.08608247415185034,-0.05689726878420129,-0.1429088107936111,-0.014627145081659937,0.11440053698960062,-0.10008137273319781,0.03119876048236954,0.2037266310174052,0.19711894550949974,0.05008613073712477,-0.07062759834687361,-0.07422119814413666
0.08058608624630959,-0.05003937547722931,-0.1305243381427751,-0.015399618115896959,0.10546963038337574,-0.09047526212202422,0.03368952735791886,0.19005443026638838,0.1842401755255038,0.04523469534166261,-0.07160406998429163,-0.07081268334504612
0.07606861914223965,-0.04206806162442172,-0.11811835881007862,-0.01722798434358343,0.09701293421051921,-0.080219648023457,0.035893654013394206,0.1762987008119286,0.17097416540558663,0.04122667308949865,-0.06946371540979426,-0.06738157182610348
0.07244757232029095,-0.033705929228293886,-0.10629177716654922,-0.019704602242276315,0.08930005998746537,-0.07000259452250844,0.037512651404489485,0.16248116425257186,0.15834269142740723,0.03772200733837971,-0.06596120522037313,-0.06400897153621803
0.06818296536837193,-0.02599201671680225,-0.09447681067886678,-0.021509567853717864,0.08127222610677821,-0.060106402681509255,0.038395544834625026,0.148876476650136,0.1451302937233638,0.03413407979648413,-0.061032020879330656,-0.06071746263591476
0.060616495616735655,-0.021116586005048475,-0.08206725787180076,-0.020122143371822557,0.07128873427349758,-0.05141974436240133,0.03780788641244385,0.13505487636975283,0.13094521690535565,0.029668202955598764,-0.05570507815930893,-0.05757720761530844
0.050146260189811866,-0.018867971463732466,-0.06925415323630725,-0.015875266497885183,0.059645511275893605,-0.04393065945054903,0.03598621310344154,0.12153918968404642,0.1154830388970452,0.024180681227929966,-0.05029199786135552,-0.05466002124412189
0.03760963469035383,-0.01844278168409843,-0.05612678056819479,-0.009591303175131214,0.04680578269451165,-0.03724391776956853,0.03307124523071028,0.10819836245737587,0.09985296939065959,0.018544998928306328,-0.04391469111631603,-0.05181664824490893
0.025676919108562426,-0.018481410093732425,-0.044041455529063696,-0.0033657968742132425,0.034784623826821494,-0.0313371393354082,0.029616887412478844,0.09589852090088889,0.08480088126125347,0.012567542612793265,-0.038611070275069305,-0.0493312262455423
0.019286439934657257,-0.016457161074138815,-0.03551541063787598,-0.0010331681718327521,0.027314720229207372,-0.02614999815354908,0.02622215630376129,0.08513369517713956,0.0733842849127482,0.006620326556045272,-0.03767118724812256,-0.047537456680250785
0.018266250447188867,-0.012331881588259944,-0.0303419165795874,-0.0025479992604617793,0.024208218964715048,-0.021554810859442546,0.023146660963266445,0.07629500635953183,0.06497989729472176,0.0007248448551208488,-0.040721986141950425,-0.04644697971246661
0.020976602459503065,-0.007062502935146567,-0.02779125254798358,-0.006557190378337085,0.02427724726286123,-0.017693517777831364,0.02013237854569811,0.06886480530858446,0.05950908410452597,-0.005093320105170529,-0.04711294623184404,-0.04590231122585845
0.0253046031542514,-0.0015194330877464912,-0.02661543300766742,-0.011567579289394088,0.025851081093024475,-0.014360892512027162,0.01721542071755956,0.06277102467405318,0.055354901868323855,-0.010242435343274247,-0.05453489577866528,-0.04578822908986926
0.02661945847167674,0.0021567153317292804,-0.02429231231040674,-0.014112057941704385,0.025366530306309264,-0.01135176610632534,0.013847669763383814,0.056652349187935366,0.05083501810272725,-0.013360516625348783,-0.05847001426267739,-0.04570774851920052
0.024843394030390164,0.004039476587148613,-0.020666778316840374,-0.014204328500654933,0.022704958856176776,-0.00855582812168027,0.010312321125814216,0.050939372504463794,0.04534738221342917,-0.014679907499382383,-0.05877856309916002,-0.04562304051733123
0.021839701688709495,0.0049832634363807,-0.016773814676209454,-0.013215054090903646,0.019311874178799433,-0.00605886770604889,0.006733768015099115,0.04546810009990747,0.04029859853672236,-0.014265293846596918,-0.057002438813581455,-0.045533187329125986
0.018052737603043472,0.005577034035472411,-0.012450909539468384,-0.011673115932249076,0.015311613581791774,-0.0035101590547206457,0.0037136361011275995,0.04110177208453603,0.03548848319807788,-0.013101801994859125,-0.05347906390248669,-0.04533668132036842
0.015278230871614248,0.007094539381779661,-0.008195684068685084,-0.01109704103202498,0.011819797594937852,-0.000569194700043397,0.001883911960706261,0.038315685001360046,0.03259430618980655,-0.012712368845944415,-0.05004065876797033,-0.04485846339651781
0.013652497831434888,0.009566982477285242,-0.004114804990563471,-0.011586203658970382,0.008958566003050403,0.0027259900619865905,0.0013325608347926619,0.037408516114052055,0.030982602542667975,-0.013242976610899269,-0.046814957473833026,-0.044085466053479926
0.01196387723896377,0.012279644152370551,0.00029166091586166657,-0.012146498850601546,0.00587992105117487,0.00628127086004522,0.001591658361338432,0.037356972631123184,0.030359978161896714,-0.014087876792242226,-0.04271638415019191,-0.042923068979987065
0.010877518386159985,0.014884846589118237,0.003994995619881381,-0.012942770532297357,0.0034437735660508076,0.009408944173496532,0.002283768644301267,0.038027463877654225,0.03007764409222561,-0.014898769492879336,-0.038793976227836646,-0.04134846693308246
0.01117387937836763,0.016434341751117458,0.005230956328343776,-0.013856922937164317,0.0029500343393181008,0.010766592528220766,0.0022463849104423996,0.037732368537040414,0.03027911903814611,-0.014348407676260043,-0.03652963179974897,-0.03927287840643025
0.012740726350599028,0.01702285780569987,0.00421014953964944,-0.014901261359442418,0.004237646721007082,0.010510873156480329,0.0015432141742488853,0.036867201582475535,0.030267324906500775,-0.012663357287585405,-0.03578013200558576,-0.0367812906807072
0.01574928650350589,0.01713430716747565,0.0012610087916892024,-0.016387861656349537,0.007218849078507913,0.009035600070179985,0.0002860222590837187,0.0351822279348242,0.030710131046976466,-0.010389031319483745,-0.036688774834485016,-0.0338641250221882
0.019480240059110504,0.017160221001213102,-0.002500460458582393,-0.0182085712758272,0.010966015707004227,0.007125787278534487,-0.0012552935907135861,0.03337057337300995,0.03070991343601357,-0.008015564353083104,-0.038020908519496965,-0.030819507660354142
0.022476220777869906,0.01776062904606372,-0.004939579673268039,-0.020009428049807064,0.013659945927505208,0.006226063278606633,-0.0027650875925439473,0.03138699460156554,0.030148112994215444,-0.0063042425712628155,-0.0374231459537369,-0.028023008703057465
0.02471752040330302,0.019081954672560755,-0.005886766469173328,-0.02186711560634999,0.015209224378557554,0.006488683973703989,-0.004141278198401036,0.029766513005933682,0.02855019134810694,-0.005400012925611767,-0.034944346253246675,-0.025537315619411072
0.026491467451588164,0.020836359632763927,-0.005932070017541478,-0.023746815658603964,0.016061175745921356,0.007465774894544598,-0.005795883039798658,0.027571111733734256,0.02641598802551292,-0.004757846543518402,-0.031279196849262406,-0.02321429702329677
0.02806532504368185,0.023059014350387808,-0.0052786692966154646,-0.025767463471585372,0.01647340285074017,0.009028024882015208,-0.0077633250471794485,0.025269967027691565,0.023526181588473978,-0.004541158943655652,-0.02729636226308591,-0.021047673359191884
0.03027597521740521,0.025523895712196955,-0.004947047914050315,-0.02811823386836974,0.017413800765527072,0.0104653490379402,-0.010551280271456624,0.021901724631409783,0.02087416935872258,-0.004618688948695975,-0.025111105469807764,-0.018776356928947243
0.0329922330780258,0.028292574452521795,-0.004755236818072873,-0.030788124878314147,0.01872270668558762,0.01190311717073029,-0.01394295604291771,0.01816049627286979,0.01806650853714562,-0.004942176161765731,-0.024561855372671016,-0.016441052280654275
0.03570967220496961,0.03142069723204035,-0.004150540447829121,-0.03356885899154686,0.01985933314289674,0.013674262157703494,-0.017875415961145003,0.013565443224988205,0.015310097651190534,-0.0056381277055923724,-0.024899830792559745,-0.014224850590995092
0.03805208801653164,0.03513905977086847,-0.002595896452692436,-0.03645216751532332,0.02033241886799842,0.0161946154022326,-0.021744898474017418,0.00915771225656702,0.012405208958465225,-0.0060746217598425575,-0.025042291016994418,-0.011819614153854612
0.039283242036928345,0.039730868799699066,0.0008042483271886435,-0.03929046506002088,0.019260239813226828,0.02012605662820778,-0.024905416369943686,0.004832417668211012,0.009929567797178364,-0.0050826510926160005,-0.02290757659369831,-0.008664877650657377
0.039371223209337024,0.04507263811318522,0.0059664089247827715,-0.04202466129955646,0.016672907925443816,0.025367383387937786,-0.0272106619469252,0.0013213473646705278,0.007465172049244848,-0.0028341154696899747,-0.018627271127968782,-0.004949819403905129
0.0385831922732881,0.050829871810911205,0.012326009047644176,-0.04456501028954402,0.01300745864287369,0.03143826736425099,-0.028995546260654103,-0.002224051070636256,0.0054925352704897025,0.0004308369300815457,-0.013186308289742123,-0.0006795654136663189
0.037242424133512746,0.056461022345977156,0.019089899322599226,-0.0467982636165487,0.008861446893253295,0.037670672320659335,-0.030574729352430535,-0.005511981819232552,0.003167697147460179,0.0037874029957540418,-0.007782405334273752,0.003104555066912978
0.03600651142691556,0.06092799737794164,0.024709005117902423,-0.04845728412168371,0.0054163780381237345,0.04275254507097937,-0.03300974953630441,-0.010224435838304003,1.215478739683628e-05,0.005511361516517028,-0.004937518752624116,0.004698182387737545
0.03490684551738778,0.06420737197578132,0.029128297296278364,-0.04956295776050128,0.0027132143108103304,0.04664198734432116,-0.03612889796949047,-0.015456856235395052,-0.004233824186955833,0.005611250177244036,-0.0045697773675194035,0.0042435591268323225
0.03386347865889832,0.06659325569018668,0.03266764099200396,-0.05023163063880279,0.000521920526763258,0.04966292155606306,-0.03982163980804256,-0.021752903673014794,-0.009042539481015403,0.004700921485050583,-0.005632632298493521,0.0023418258020157737
0.03235965614072287,0.06811185628129755,0.035839679998181224,-0.050243736807198694,-0.0017016947443975823,0.05206661383888289,-0.04335734609090935,-0.027448756486609466,-0.014040920522913091,0.0032024821525106404,-0.00753657686565396,0.00022573732516180297
0.029407992321221977,0.06892254634789291,0.03970704692880452,-0.04919052852443518,-0.005049019534789174,0.05443692563311205,-0.045746673013720256,-0.03189133408198571,-0.017605390675724912,0.002207061985923004,-0.00888786724354095,0.0004094704034356975
0.02527120965513255,0.06932699190617357,0.04430410750052338,-0.0473704164644529,-0.009406598071337594,0.0569431445953701,-0.04692607794199038,-0.03429850049129388,-0.020062522823452104,0.0018452472092446708,-0.009377937646996194,0.002871582370878908
0.020321847165433966,0.06936364497296167,0.049337435489938075,-0.044953280458938115,-0.014415490104306834,0.05945485886587218,-0.047198524140510976,-0.03599377970317343,-0.021348818830227236,0.0016821219721022847,-0.009700144378296015,0.0068795434242868055
0.016062058063389797,0.06979672493421703,0.05406109160300314,-0.04307665671947843,-0.018937292940399118,0.062005251427798,-0.04774434681670821,-0.03722656999364042,-0.02269793230578822,0.0019167280333334362,-0.008971516996991958,0.011685957500547368
0.015104986390252009,0.07166565288355732,0.05690572121006201,-0.043522792030850195,-0.020843830060422636,0.06437574107812093,-0.051087565504071675,-0.04121436640673527,-0.02570926090244012,0.002514552400386915,-0.0062183625916052586,0.01557857909332112
0.017262857674545547,0.07521299266572672,0.05830146225710622,-0.046339116360315534,-0.02044461832911313,0.06689768490909215,-0.05669244985106903,-0.046798307552837,-0.030349917842702596,0.003608865713787812,-0.0015026763841271304,0.018531023718504194
0.02172874102132543,0.08022468812704711,0.05882252018377078,-0.05100987090974824,-0.0184499347661969,0.06974040619220892,-0.06390092900837224,-0.05415549170511519,-0.03564859454070202,0.005411183535163618,0.00511438438642255,0.02136949129827153
0.026727227813554556,0.08711287346240217,0.06066427078741279,-0.056888431692425974,-0.016857323709517043,0.07416595423555428,-0.07004500297689803,-0.06089872523680756,-0.04016862592285253,0.008049156823588696,0.012662363637512579,0.024364340866991106
0.02869861371825654,0.09607466868554218,0.06759888445491193,-0.06230716867806893,-0.019360314587537262,0.0820804474918836,-0.07050823318254033,-0.0653260901662512,-0.040565516374632266,0.011483842592943836,0.019120243647802092,0.028435729058015113
0.027785589620303683,0.10692162314236604,0.07929587592411382,-0.0672636429991658,-0.025719208369423006,0.09323321945522266,-0.06565516790186698,-0.06647627694242482,-0.03723271415617816,0.01574897198203374,0.024463456836014863,0.03348048773207379
0.02557229822857288,0.11954756822929213,0.09406913778803319,-0.0724672202972631,-0.034283085893656216,0.10675309485492619,-0.0579785740739579,-0.06673290936334714,-0.031220551645780168,0.02052719842826721,0.029128686712328752,0.0389387963365942
0.022704586170758424,0.13265075296713877,0.1099677963359021,-0.07760635123629887,-0.043736342829116856,0.12108018861112424,-0.04900929634552856,-0.06558688023910664,-0.024097171678002224,0.025876531580906706,0.03332130189174242,0.04447043139238558
0.021090374942852288,0.14398378922256355,0.12282505283148361,-0.08248213919054836,-0.05100968294987617,0.13313165579669647,-0.0426717450544581,-0.06584106716964074,-0.018620699408018616,0.03163592916081203,0.03781354884055942,0.049502406605405426
0.02111000936667233,0.15345625255040257,0.13217752984551845,-0.08725582073841194,-0.05567969325106978,0.14262490008939224,-0.039712450461638286,-0.06663632891870712,-0.015258140903196651,0.037653051715784605,0.04258127071348159,0.053912041378943426
